ECG
32025
32167
32337
32535
32823
33153
33398
33567
33661
33661
33446
33223
32973
32652
32326
32094
31908
31767
31723
31719
31850
32086
32331
32599
32896
33227
33510
33637
33671
33670
33482
33190
32897
32625
32373
32167
31979
31838
31772
31832
31981
32191
32412
32695
32970
33307
33623
33821
33871
33825
33701
33423
33042
32748
32439
32177
31964
31785
31723
31724
31831
32052
32306
32599
32959
33337
33581
33692
33758
33757
33631
33412
33072
32728
32422
32164
31975
31840
31822
31884
31980
32166
32372
32601
32855
33039
33152
33186
33189
33150
32906
32633
32367
32215
32201
32210
32386
32631
32979
33269
33623
33987
34181
34093
34113
34447
35127
36324
38051
40262
42351
44125
45926
47784
49303
50556
51786
52643
53095
53127
53430
53706
54127
54503
54846
55175
55378
55303
55225
55268
55028
54239
52903
51274
49525
48135
46552
44820
42965
41312
40231
39216
38045
37104
36345
35396
34486
33636
32950
32303
31650
31023
30460
29871
29318
28843
28569
28280
28083
28058
28078
28146
28288
28497
28723
28895
29144
29279
29244
29185
29071
28777
28435
27975
27712
27458
27167
26997
26922
27013
27205
27340
27571
27791
28253
28607
28857
28949
29073
29039
28912
28647
28404
28188
27884
27662
27456
27418
27376
27438
27526
27761
28013
28295
28551
28991
29263
29436
29479
29495
29445
29213
28898
28479
28197
28062
27918
27796
27871
27898
27975
28193
28393
28696
29038
29343
29619
29782
29919
29927
29734
29388
29183
28864
28571
28452
28333
28180
28103
28108
28203
28511
28741
28927
29411
29774
30007
30294
30345
30303
30191
29919
29557
29300
28957
28663
28540
28466
28475
28487
28714
28877
29022
29357
29691
29981
30334
30523
30557
30617
30410
30102
29835
29557
29228
28956
28866
28791
28728
28879
28959
29140
29423
29672
30011
30372
30602
30753
30898
30847
30616
30414
30089
29690
29412
29158
28941
28953
29006
29067
29140
29354
29633
29873
30196
30522
30727
30893
31039
31036
30842
30558
30222
29879
29599
29463
29351
29191
29095
29134
29299
29442
29719
30060
30313
30636
30868
31029
31189
31191
31003
30727
30445
30150
29871
29563
29439
29275
29223
29351
29603
29775
30021
30308
30610
30974
31247
31426
31521
31506
31370
31123
30763
30452
30205
29984
29750
29703
29790
29844
29981
30167
30512
30789
31111
31442
31750
31932
32050
32088
32017
31828
31547
31263
31077
30919
30815
30775
30845
31005
31229
31472
31788
32151
32542
32935
33319
33634
33789
33789
33708
33553
33295
33071
32919
32813
32743
32687
32677
32727
32959
33246
33583
33963
34375
34716
34919
35126
35300
35207
34995
34831
34495
34060
33799
33639
33455
33313
33308
33359
33426
33574
33860
34143
34366
34594
34818
34949
34959
34895
34779
34525
34083
33688
33383
33105
32875
32741
32667
32625
32627
32714
33019
33351
33621
33834
34037
34125
34125
34110
33876
33519
33151
32733
32402
32153
31952
31811
31748
31734
31798
31894
32048
32286
32559
32758
32876
32944
32869
32653
32332
31948
31478
31031
30599
30150
29769
29636
29683
29715
29897
30181
30535
30848
31237
31719
32057
32252
32343
32338
32195
31988
31740
31468
31238
31071
30960
30950
30892
30902
31029
31269
31547
31844
32207
32572
32867
33013
33084
33082
32918
32708
32429
32103
31879
31714
31596
31519
31541
31562
31677
31894
32135
32415
32742
33053
33439
33687
33727
33681
33411
33159
32859
32619
32404
32258
32167
32086
32087
32135
32284
32475
32727
32973
33273
33508
33783
34007
34047
34068
33836
33595
33305
32996
32761
32591
32495
32453
32479
32583
32706
32895
33114
33379
33703
33947
34207
34412
34390
34407
34183
33894
33610
33301
33013
32838
32743
32666
32693
32756
32871
33041
33271
33520
33785
34085
34276
34318
34351
34319
34100
33798
33543
33269
33063
32912
32772
32657
32621
32655
32728
32892
33127
33367
33623
33853
34009
34095
34168
34246
34101
33813
33520
33218
32962
32775
32632
32564
32503
32549
32708
32887
33071
33327
33665
33994
34165
34251
34335
34353
34185
34023
33739
33414
33147
32957
32812
32761
32722
32788
32916
33094
33313
33602
33893
34113
34346
34495
34446
34381
34255
34007
33660
33382
33210
33076
32943
32838
32837
32894
33023
33182
33446
33727
34009
34292
34575
34663
34683
34687
34497
34204
33881
33538
33213
33006
32878
32862
32938
33026
33177
33355
33524
33740
34045
34331
34476
34599
34735
34655
34484
34252
33903
33527
33232
33031
32884
32794
32756
32799
32952
33219
33500
33764
34017
34292
34499
34556
34560
34524
34306
33991
33679
33383
33094
32929
32843
32775
32775
32820
32943
33079
33332
33619
33890
34228
34476
34525
34583
34519
34276
34050
33709
33383
33095
32926
32839
32790
32751
32754
32820
32958
33197
33530
33831
34087
34271
34359
34434
34390
34186
33918
33621
33303
33031
32797
32644
32591
32611
32678
32825
32999
33167
33333
33579
33863
34084
34248
34276
34127
33976
33756
33444
33170
32884
32645
32439
32333
32369
32470
32636
32841
33055
33275
33540
33765
33969
34101
34124
33989
33759
33484
33156
32847
32596
32404
32286
32172
32113
32225
32372
32590
32830
33045
33364
33633
33852
33935
33950
33870
33660
33380
33047
32716
32439
32295
32237
32164
32199
32263
32367
32556
32807
33092
33357
33606
33775
33909
33955
33901
33699
33402
33031
32695
32469
32290
32127
32046
32040
32054
32142
32354
32559
32788
33076
33327
33536
33691
33701
33581
33364
33060
32690
32429
32261
32095
32028
31975
31919
31985
32141
32258
32453
32763
33095
33383
33622
33799
33844
33764
33580
33287
33037
32803
32564
32344
32263
32210
32185
32263
32501
32693
32959
33305
33579
33855
34089
34220
34274
34204
33971
33669
33313
33047
32799
32613
32477
32463
32471
32559
32766
32971
33191
33457
33736
33962
34143
34271
34305
34208
34037
33815
33468
33117
32786
32535
32438
32388
32359
32394
32519
32748
32960
33231
33573
33829
34023
34149
34159
34042
33845
33589
33279
32964
32683
32567
32397
32263
32387
32453
32607
32820
33119
33379
33682
33932
34140
34279
34279
34164
33964
33705
33412
33169
32952
32741
32619
32578
32541
32591
32799
32974
33191
33488
33799
34095
34278
34394
34407
34303
34086
33799
33444
33151
32927
32732
32591
32571
32596
32661
32773
32996
33236
33487
33788
34081
34287
34395
34415
34312
34129
33850
33505
33175
32964
32801
32662
32567
32567
32679
32783
32855
32959
33174
33287
33503
33627
33652
33667
33591
33615
33627
33633
33690
33799
33949
34186
34417
34583
34634
34548
34529
34762
35407
36694
38551
40536
42561
44668
46558
48084
49526
50772
51642
52192
52799
52951
52836
52879
53511
53996
54364
54591
55012
55396
55621
55701
55746
55154
53799
52295
50691
48774
47041
45212
43199
41418
40150
38775
37535
36511
35535
34525
33711
33067
32540
32092
31774
31529
31109
30661
30144
29727
29262
28879
28492
28268
28041
28007
27953
27989
28143
28273
28538
28756
29026
29144
29124
29149
28983
28760
28423
28070
27745
27513
27361
27232
27195
27073
27271
27399
27644
27849
28167
28446
28763
28985
29041
29158
28999
28780
28541
28292
27972
27786
27631
27516
27483
27567
27678
27796
28100
28325
28695
28977
29281
29465
29573
29633
29566
29339
29116
28813
28588
28331
28167
27991
28020
28009
28155
28368
28624
28897
29174
29478
29684
30020
30171
30222
30039
29908
29596
29301
28973
28810
28623
28552
28559
28549
28651
28870
28998
29312
29512
29822
30138
30269
30510
30525
30446
30183
29949
29585
29317
29034
28909
28787
28739
28799
28936
29179
29324
29615
29897
30127
30418
30724
30816
30783
30810
30498
30212
29801
29617
29415
29210
29127
29086
29105
29230
29404
29555
29799
30079
30449
30652
30768
30828
30914
30766
30580
30247
29974
29727
29501
29293
29156
29179
29156
29287
29404
29613
29903
30148
30423
30589
30889
30937
30862
30820
30580
30315
29939
29703
29437
29237
29109
29142
29103
29207
29332
29485
29744
29991
30300
30534
30667
30816
30863
30679
30455
30127
29808
29479
29325
29116
29079
29004
29060
29209
29275
29533
29785
30043
30346
30686
30850
30964
30937
30804
30679
30506
30119
29882
29681
29489
29431
29407
29461
29629
29748
30071
30300
30516
30900
31112
31279
31494
31546
31410
31355
31095
30815
30476
30377
30251
30119
30215
30311
30460
30829
31101
31346
31845
32155
32410
32687
32983
33059
32988
32792
32682
32407
32124
31946
31902
31823
31797
31974
32146
32300
32604
32931
33181
33468
33740
34037
34135
34150
34039
33844
33639
33254
32947
32810
32623
32493
32594
32603
32702
32813
33092
33452
33670
33948
34241
34420
34455
34387
34202
33983
33759
33435
33095
32788
32701
32637
32502
32494
32681
32791
32903
33255
33551
33798
34047
34310
34388
34264
34071
33873
33502
33154
32979
32759
32555
32463
32546
32498
32492
32785
33007
33220
33478
33831
34074
34244
34325
34376
34191
33883
33615
33319
32973
32750
32718
32540
32459
32391
32599
32740
32869
33197
33543
33767
33982
34234
34334
34281
34119
33874
33635
33329
32975
32677
32553
32487
32420
32433
32481
32743
33031
33239
33502
33782
34083
34347
34431
34372
34207
33980
33731
33420
33093
32839
32597
32551
32553
32542
32625
32767
33076
33361
33600
33853
34155
34357
34438
34407
34231
33994
33670
33399
33112
32826
32615
32630
32581
32563
32663
32931
33122
33287
33600
33988
34223
34356
34378
34359
34244
34037
33756
33431
33136
32839
32676
32642
32559
32502
32535
32831
33127
33375
33634
33942
34267
34460
34498
34434
34220
34002
33700
33325
33007
32858
32701
32565
32468
32592
32703
32785
32943
33266
33517
33764
34023
34272
34348
34270
34117
33913
33495
33225
32973
32622
32473
32354
32237
32304
32543
32623
32775
33111
33471
33700
33903
34171
34258
34155
34012
33839
33466
33095
32839
32704
32500
32326
32330
32375
32432
32625
32948
33153
33443
33796
33999
34073
34076
34101
33963
33738
33416
33187
32887
32623
32511
32485
32385
32348
32561
32791
32986
33175
33542
33885
34049
34185
34295
34215
34015
33757
33519
33270
32977
32711
32537
32483
32375
32316
32506
32738
32890
33088
33500
33772
33958
34138
34271
34188
33996
33790
33522
33175
32860
32773
32575
32407
32399
32489
32554
32668
32991
33252
33486
33743
34076
34197
34204
34196
34107
33823
33455
33201
32884
32589
32431
32444
32365
32360
32519
32742
32898
33071
33349
33721
33919
34037
34085
34110
33957
33627
33216
32964
32638
32345
32134
32075
32188
32145
32160
32442
32588
32807
33184
33542
33782
33895
33968
34035
33809
33487
33092
32868
32547
32288
32129
32135
32102
32099
32151
32427
32650
32807
33156
33487
33685
33810
33882
33869
33746
33436
33093
32854
32614
32326
32125
32167
32137
32173
32230
32547
32705
32902
33210
33569
33777
33892
34021
34017
33790
33486
33151
32879
32647
32397
32212
32199
32110
32148
32231
32428
32748
33014
33357
33623
33975
34110
34131
34106
33982
33677
33317
32984
32775
32487
32277
32316
32284
32240
32452
32607
32740
33056
33411
33664
33854
33991
34079
33978
33767
33633
33343
32981
32699
32588
32341
32196
32308
32321
32405
32753
32932
33143
33522
33836
34020
34204
34321
34350
34132
33972
33660
33269
32972
32863
32663
32540
32552
32709
32820
32996
33370
33594
33874
34275
34518
34708
34799
34785
34557
34251
33974
33642
33292
33070
33010
32852
32808
32989
33101
33226
33591
33841
34181
34567
34876
35023
35077
35050
34962
34740
34499
34214
33886
33701
33623
33479
33405
33553
33732
33868
34069
34398
34700
34956
35177
35356
35423
35346
35134
34875
34540
34206
33955
33765
33517
33371
33428
33467
33531
33662
34004
34223
34479
34805
35036
35112
35119
35047
34869
34607
34294
33959
33602
33271
33204
33053
32979
33162
33283
33431
33703
34055
34349
34639
34900
35079
35118
35126
35031
34748
34375
34062
33733
33484
33403
33281
33189
33277
33380
33512
33775
34090
34367
34654
34929
35060
35092
35033
34877
34589
34169
33711
33438
33182
32948
32810
32919
33007
33067
33215
33500
33788
34030
34289
34533
34695
34724
34645
34467
34191
33799
33438
33109
32948
32713
32537
32569
32696
32828
32927
33213
33525
33759
33973
34189
34343
34379
34263
33988
33687
33394
33013
32669
32503
32324
32055
31801
31852
31879
31954
32228
32628
32967
33478
33937
34339
34749
35108
35235
35263
35275
35247
35204
35067
34807
34421
34135
34111
34392
35445
36856
38407
40036
41274
42276
43309
43767
44460
44909
45207
45595
45727
45596
45847
46125
46260
46676
47127
47454
47691
48241
48503
48324
47631
47061
46175
45129
44199
42903
41661
40084
38431
37101
35890
34703
33680
32789
32053
31572
31105
30837
30853
30930
30951
30876
30915
30779
30524
30167
29782
29463
28973
28517
28254
28012
27943
27869
27843
27988
28049
28262
28516
28775
29012
29236
29366
29358
29239
28967
28762
28377
28113
27838
27655
27559
27446
27438
27486
27700
27854
28132
28454
28721
29050
29295
29413
29442
29411
29271
29021
28659
28389
28179
27900
27854
27763
27799
27822
28001
28141
28497
28771
29029
29380
29599
29721
29858
29813
29598
29303
29031
28779
28532
28330
28236
28138
28148
28274
28354
28620
28844
29097
29513
29796
29967
30220
30279
30108
30007
29759
29414
29125
28923
28646
28516
28420
28475
28522
28690
28914
29191
29463
29744
30155
30304
30391
30520
30423
30215
29949
29748
29434
29164
28899
28869
28756
28725
28871
28999
29220
29429
29765
30102
30415
30749
30860
30836
30866
30685
30398
30012
29828
29572
29388
29186
29186
29135
29127
29432
29625
29818
30183
30461
30715
31050
31229
31201
31142
30999
30720
30378
30126
29832
29650
29476
29327
29471
29495
29569
29772
30057
30292
30650
30965
31146
31351
31461
31324
31173
30886
30475
30111
29840
29620
29400
29414
29380
29498
29620
29915
30151
30388
30677
31041
31220
31317
31335
31295
31029
30735
30407
30148
29823
29628
29449
29380
29423
29442
29511
29831
30069
30349
30630
31030
31252
31364
31359
31399
31194
30921
30532
30305
30065
29863
29719
29743
29712
29743
29918
30182
30471
30780
31262
31556
31783
32012
32103
32007
31806
31636
31309
30983
30691
30575
30504
30487
30615
30806
30977
31177
31553
31875
32250
32679
33007
33191
33243
33219
33012
32780
32504
32234
31980
31828
31727
31645
31623
31781
31950
32215
32561
32801
33080
33379
33573
33759
33830
33735
33536
33282
32959
32615
32308
32164
32022
31938
31972
32094
32230
32452
32703
32940
33228
33496
33738
33895
33922
33821
33607
33303
32943
32655
32428
32294
32152
32037
31982
32070
32245
32473
32748
33069
33373
33651
33860
33932
33960
33870
33594
33260
32906
32611
32340
32127
32022
31987
31991
32084
32230
32433
32652
32951
33316
33614
33823
33983
34055
33908
33598
33287
32910
32549
32251
32047
31919
31921
31948
32033
32228
32428
32654
32973
33267
33567
33821
33887
33955
33814
33594
33329
32951
32605
32302
32111
32031
32006
32023
32134
32327
32508
32757
33095
33438
33702
33927
34055
34091
33926
33738
33493
33124
32751
32459
32251
32108
32066
32086
32196
32377
32622
32891
33170
33471
33786
34009
34095
34069
34002
33738
33409
33140
32858
32559
32321
32198
32146
32175
32294
32463
32676
32935
33191
33494
33853
34148
34231
34239
34134
33903
33572
33165
32791
32475
32294
32195
32181
32241
32383
32577
32825
33112
33415
33719
33992
34208
34343
34392
34287
34034
33653
33244
32910
32645
32439
32319
32276
32293
32391
32567
32775
33071
33434
33779
34022
34215
34314
34375
34278
34029
33668
33255
32948
32713
32512
32389
32322
32287
32385
32594
32831
33063
33359
33726
34067
34308
34385
34329
34201
33995
33700
33319
32975
32692
32508
32368
32317
32322
32423
32559
32775
33068
33399
33719
33958
34136
34215
34247
34142
33908
33588
33247
32913
32612
32417
32315
32278
32263
32348
32501
32684
32940
33258
33602
33927
34155
34247
34204
34054
33820
33580
33229
32870
32540
32298
32241
32223
32241
32367
32540
32716
32944
33254
33590
33893
34183
34310
34300
34161
33863
33540
33173
32858
32647
32489
32351
32263
32263
32357
32507
32741
33039
33344
33649
33880
34042
34100
34089
33991
33799
33519
33208
32887
32607
32408
32297
32239
32212
32313
32489
32716
32958
33245
33652
33956
34129
34198
34171
34031
33809
33575
33214
32830
32558
32391
32286
32263
32302
32403
32542
32751
33042
33397
33743
33951
34125
34228
34260
34181
33943
33621
33234
32866
32564
32356
32244
32228
32248
32388
32514
32664
32914
33243
33635
33967
34180
34285
34264
34156
33965
33615
33198
32813
32524
32380
32287
32285
32341
32423
32550
32754
33038
33412
33740
33967
34114
34231
34237
34146
33933
33607
33158
32685
32381
32231
32125
32105
32170
32285
32466
32715
33021
33316
33599
33799
33990
34103
34172
34111
33892
33556
33140
32771
32463
32270
32145
32084
32080
32132
32253
32495
32788
33100
33334
33701
33960
34027
33942
33780
33535
33268
32858
32455
32193
32004
31879
31813
31791
31927
32100
32322
32548
32830
33180
33510
33676
33781
33680
33494
33262
32992
32532
32183
31999
31962
31915
31866
31834
31927
32156
32414
32625
32945
33317
33703
33927
33916
33951
33940
33655
33311
33015
32736
32413
32190
32063
31992
32028
32156
32297
32452
32743
33132
33495
33764
33898
33968
34036
33927
33640
33239
32751
32357
32044
31845
31751
31665
31684
31783
31928
32091
32263
32556
32847
33099
33295
33401
33406
33212
32900
32535
32154
31847
31564
31338
31170
31071
31052
31191
31436
31683
31919
32216
32525
32821
33037
33127
33031
32757
32443
32101
31743
31427
31127
30880
30723
30598
30575
30645
30764
30910
31118
31372
31670
31926
32071
32047
31927
31739
31458
31115
30661
30237
29879
29590
29374
29209
29127
29159
29211
29319
29557
30007
30411
30762
31009
31198
31330
31363
31255
30969
30621
30351
30162
30046
29988
30004
30082
30287
30555
30858
31208
31550
31968
32319
32580
32654
32515
32320
32052
31695
31323
30922
30666
30574
30683
30923
31264
31724
32252
32903
33575
34323
35076
35575
35687
35484
35188
35069
35175
35847
36938
38290
39811
41231
42786
44232
45495
46589
47569
48692
49681
50351
50712
51009
51719
52199
52343
52074
52167
51950
51668
51302
50935
50295
49268
47854
46935
45940
44792
43768
42769
41713
40724
39971
39158
38211
37043
35814
34663
33623
32647
31751
31004
30519
30180
29920
29734
29696
29717
29789
29943
30194
30426
30664
30793
30854
30780
30532
30204
29818
29434
29079
28775
28565
28430
28326
28315
28385
28548
28785
29071
29414
29735
29991
30170
30285
30301
30175
29914
29615
29249
28937
28695
28532
28428
28390
28438
28595
28794
29045
29331
29685
30078
30390
30615
30789
30831
30656
30396
30076
29733
29438
29222
29063
28974
28961
29004
29172
29391
29655
29935
30269
30631
30892
31132
31284
31307
31188
30930
30591
30271
29988
29743
29560
29455
29415
29462
29595
29781
30048
30351
30709
31121
31488
31751
31895
31854
31647
31373
31029
30655
30357
30079
29871
29743
29703
29770
29917
30119
30398
30748
31156
31588
31892
32062
32117
32105
31977
31743
31418
31041
30647
30364
30183
30071
30005
30036
30183
30388
30677
30996
31348
31751
32063
32231
32280
32221
32063
31834
31520
31108
30694
30400
30181
30039
29978
30007
30165
30412
30671
30959
31333
31687
31967
32167
32199
32135
31955
31723
31303
30887
30514
30196
30004
29852
29822
29863
30002
30188
30394
30673
30981
31303
31609
31815
31887
31828
31631
31335
30943
30567
30240
29966
29789
29675
29683
29726
29849
29994
30183
30438
30771
31108
31414
31652
31783
31751
31518
31260
30919
30518
30173
29895
29703
29626
29622
29678
29841
30020
30319
30630
30972
31337
31690
31940
32092
32108
31980
31743
31423
31047
30774
30558
30401
30252
30228
30351
30576
30869
31179
31489
31892
32293
32715
33105
33300
33414
33332
33156
32861
32527
32223
31980
31887
31967
32042
32199
32435
32678
32972
33359
33757
34165
34537
34868
35033
35092
34933
34599
34213
33877
33603
33375
33237
33171
33159
33135
33255
33451
33771
34151
34534
34924
35221
35377
35366
35301
35229
35037
34668
34116
33776
33615
33477
33317
33197
33204
33317
33514
33774
34100
34422
34604
34878
35085
35258
35241
35073
34733
34253
33777
33391
33135
32961
32884
32858
32900
33028
33119
33348
33635
34047
34404
34423
34598
34791
34836
34705
34372
33929
33551
33281
33026
32763
32541
32457
32541
32775
32898
33159
33541
33905
34255
34428
34505
34603
34663
34548
34304
33823
33328
32975
32762
32565
32423
32422
32505
32692
32909
33158
33422
33706
33978
34250
34450
34557
34581
34480
34224
33815
33255
32894
32680
32572
32511
32474
32478
32567
32743
33015
33338
33704
34087
34374
34567
34567
34507
34322
34044
33645
33248
32915
32663
32559
32454
32311
32274
32420
32656
32979
33310
33669
33927
34172
34384
34517
34599
34449
34132
33679
33266
32895
32615
32383
32221
32135
32159
32343
32539
32812
33177
33599
33977
34103
34261
34393
34384
34287
34012
33636
33127
32727
32445
32295
32223
32167
32151
32331
32571
32856
33222
33582
33895
34137
34242
34311
34295
34196
33978
33627
33099
32652
32375
32172
32081
32127
32198
32277
32431
32688
32980
33342
33703
34082
34295
34303
34233
34004
33698
33300
32880
32558
32367
32119
31951
31879
31921
32108
32367
32646
32906
33220
33503
33701
33897
34015
34029
33919
33695
33247
32804
32452
32199
32047
31911
31846
31865
32017
32194
32462
32858
33254
33592
33823
33998
34030
33996
33819
33573
33287
32903
32559
32294
32061
31936
31885
31863
31999
32182
32486
32804
33188
33516
33850
34099
34220
34201
33876
33519
33089
32694
32382
32157
32016
31937
31929
31927
32007
32191
32529
32884
33172
33468
33780
34054
34176
33997
33747
33524
33174
32716
32291
32031
31903
31856
31823
31828
31922
32137
32483
32857
33167
33414
33702
33956
34068
33956
33638
33350
33081
32747
32369
32037
31871
31796
31786
31704
31808
32037
32380
32747
33019
33274
33580
33877
33978
33919
33595
33286
32927
32578
32290
32089
31884
31705
31631
31686
31876
32146
32470
32823
33180
33395
33588
33834
33996
33967
33648
33335
32980
32599
32239
31900
31700
31646
31649
31762
31863
32052
32359
32751
33182
33470
33655
33807
33895
33859
33717
33447
32977
32567
32263
31971
31751
31564
31522
31589
31828
32097
32349
32632
33026
33461
33799
33885
33888
33879
33756
33502
32972
32552
32230
31991
31799
31692
31680
31782
31925
32081
32352
32647
32976
33301
33623
33844
33900
33884
33607
33268
32903
32589
32311
32080
31810
31626
31605
31703
31868
32051
32255
32495
32858
33227
33570
33773
33858
33761
33453
33135
32797
32427
32092
31830
31597
31462
31395
31450
31602
31817
32103
32436
32711
33026
33361
33618
33764
33743
33521
33252
32919
32604
32283
31992
31789
31673
31648
31734
31853
32078
32469
32916
33306
33543
33818
34093
34175
34023
33775
33592
33332
32891
32454
32160
32018
31972
31982
32036
32111
32342
32646
32855
33172
33639
33996
34095
34063
34055
33957
33583
33091
32739
32452
32215
31940
31760
31702
31756
31933
32141
32415
32702
33057
33421
33717
33932
33978
33906
33702
33436
33086
32664
32314
32035
31833
31807
31861
31936
32071
32226
32470
32833
33245
33524
33703
33958
34071
33978
33653
33447
33111
32666
32274
32059
31927
31823
31779
31831
31981
32189
32431
32797
33217
33620
33935
34086
34010
33916
33767
33523
33146
32667
32314
32075
31895
31807
31796
31887
32071
32308
32634
32979
33311
33533
33733
33914
34071
34118
33919
33588
33175
32791
32490
32249
32070
31997
31951
31945
32002
32125
32284
32506
32814
33045
33229
33351
33440
33542
33628
33655
33596
33519
33508
33581
33693
33879
33871
33703
33540
33623
34149
35295
37039
39156
41580
43886
45886
47703
49182
50416
51600
52335
52831
52820
52642
52636
52953
53332
53600
53860
54200
54493
54789
55061
54980
54901
54103
52860
51265
49495
47566
45748
43795
41960
40260
38644
37369
36352
35351
34366
33412
32708
32252
31927
31625
31377
31161
30893
30501
30019
29491
28918
28428
28150
27887
27671
27524
27462
27543
27692
27924
28153
28405
28630
28820
29028
29085
29015
28703
28353
27919
27530
27307
27134
26981
26823
26828
26892
27036
27177
27418
27804
28182
28559
28836
29021
29063
29031
28888
28652
28315
27933
27649
27399
27268
27237
27344
27436
27612
27858
28079
28390
28765
29124
29421
29614
29722
29688
29479
29235
28909
28556
28260
27988
27846
27839
27842
27911
28092
28279
28498
28911
29319
29703
30008
30187
30201
30132
29890
29564
29225
28891
28666
28519
28351
28274
28268
28311
28487
28734
29031
29382
29829
30196
30495
30660
30698
30610
30397
30125
29719
29351
29088
28900
28756
28649
28612
28646
28869
29167
29471
29750
30098
30396
30718
30919
30963
30908
30653
30377
30026
29623
29238
29097
28884
28801
28839
28911
29054
29319
29679
30040
30364
30647
30919
31142
31175
31082
30884
30575
30189
29815
29542
29319
29135
29045
28993
29035
29215
29434
29703
29967
30333
30699
30927
31031
31023
30988
30844
30575
30173
29751
29462
29194
28959
28837
28796
28956
29085
29236
29503
29873
30228
30497
30759
30956
31055
30999
30756
30396
29963
29610
29367
29122
28932
28784
28876
29061
29230
29462
29718
30049
30430
30781
31000
31194
31321
31254
31019
30791
30428
30040
29684
29492
29359
29329
29354
29564
29758
29946
30263
30656
31014
31382
31689
31927
32039
31984
31845
31648
31343
30998
30748
30659
30530
30500
30565
30794
31036
31319
31739
32157
32580
33015
33371
33590
33815
33878
33714
33502
33182
32908
32679
32501
32391
32388
32486
32612
32837
33118
33429
33780
34182
34622
34940
35095
35123
35092
34921
34661
34286
33909
33616
33414
33274
33187
33191
33250
33439
33697
34018
34324
34613
34940
35281
35497
35551
35412
35121
34783
34401
34028
33689
33405
33206
33038
32967
33046
33287
33519
33821
34180
34558
34928
35141
35268
35292
35255
35002
34646
34197
33751
33468
33242
33103
33031
33063
33173
33366
33576
33848
34139
34422
34682
34951
35157
35217
35085
34788
34453
34085
33692
33373
33129
32946
32812
32774
32829
32983
33209
33484
33783
34117
34420
34657
34835
34892
34789
34516
34245
33863
33470
33142
32930
32751
32671
32674
32771
32950
33143
33369
33666
33993
34311
34538
34671
34731
34674
34457
34164
33788
33412
33074
32805
32642
32575
32615
32700
32831
33001
33255
33564
33902
34246
34476
34622
34631
34549
34367
34045
33656
33287
32987
32759
32575
32486
32451
32534
32712
32967
33231
33601
33953
34280
34548
34749
34780
34679
34436
34103
33710
33358
33058
32828
32663
32593
32612
32727
32999
33276
33566
33895
34244
34599
34863
35020
35033
34923
34744
34485
34155
33852
33589
33354
33172
33108
33179
33271
33460
33726
34023
34382
34746
35071
35300
35431
35451
35335
35079
34763
34423
34037
33732
33460
33344
33324
33396
33486
33661
33839
34131
34455
34769
35051
35274
35455
35526
35478
35239
34911
34521
34157
33830
33580
33402
33317
33309
33383
33535
33787
34085
34415
34741
34997
35252
35421
35439
35348
35071
34743
34358
33995
33692
33492
33372
33318
33287
33322
33438
33640
33958
34263
34584
34862
35101
35231
35249
35102
34823
34500
34119
33735
33445
33199
33036
32924
32895
32933
33076
33318
33573
33831
34141
34470
34708
34845
34863
34775
34532
34228
33834
33414
33082
32791
32646
32558
32511
32656
32855
33017
33250
33558
33887
34214
34493
34634
34620
34484
34181
33818
33404
33031
32737
32487
32262
32148
32213
32367
32573
32706
32923
33231
33613
33884
34087
34201
34209
34093
33852
33519
33076
32664
32398
32170
32022
31909
31868
31914
32093
32328
32639
32979
33315
33576
33791
33934
33989
33863
33591
33285
32887
32529
32263
32067
31855
31738
31703
31727
32005
32215
32459
32742
33087
33354
33543
33724
33860
33764
33498
33120
32748
32400
32028
31720
31604
31583
31564
31646
31781
31975
32312
32631
32942
33252
33530
33661
33608
33448
33205
32935
32518
32063
31708
31579
31498
31356
31322
31340
31601
31927
32214
32470
32775
33127
33386
33508
33511
33402
33203
32877
32434
32015
31835
31570
31391
31294
31419
31441
31564
31771
32060
32457
32749
33018
33211
33365
33415
33298
32999
32621
32256
31964
31610
31338
31103
31066
31180
31278
31422
31558
31855
32229
32631
32919
33119
33232
33204
33146
32969
32664
32293
31924
31642
31521
31418
31356
31302
31517
31764
31964
32164
32583
32956
33259
33477
33603
33654
33607
33351
33050
32661
32246
31966
31782
31647
31527
31503
31549
31751
32047
32382
32716
33019
33295
33532
33627
33692
33575
33353
33018
32621
32250
31951
31695
31492
31403
31436
31553
31687
31876
32092
32455
32866
33210
33382
33464
33516
33469
33252
32928
32484
32052
31797
31668
31509
31426
31407
31453
31725
32035
32263
32538
32927
33303
33502
33599
33641
33580
33349
33014
32571
32175
31860
31759
31612
31508
31487
31561
31823
32132
32414
32679
32960
33258
33535
33727
33727
33584
33339
33003
32613
32316
32084
31916
31745
31663
31586
31687
31962
32209
32462
32759
33050
33325
33607
33828
33886
33781
33540
33220
32861
32551
32247
31980
31803
31676
31708
31856
31996
32162
32540
32794
33023
33189
33382
33460
33448
33252
33036
32951
32759
32684
32796
33059
33322
33586
33953
34428
34839
35119
35260
35263
35386
35735
36357
37506
39004
40348
41619
42868
43852
44465
44917
45669
46343
46864
47301
47790
48191
48705
49319
49855
50422
51188
51719
52048
52176
52010
51471
50368
48886
47263
45788
44495
43230
41780
40364
39033
38005
37159
36414
35686
35045
34476
33895
33332
32820
32361
31844
31358
30729
30152
29642
29205
28956
28791
28607
28608
28603
28765
28961
29260
29471
29735
29894
29955
29983
29826
29486
29166
28709
28325
28078
27791
27740
27681
27708
27780
27988
28181
28448
28740
29084
29354
29600
29789
29821
29692
29437
29062
28695
28378
28125
27889
27876
27782
27803
28015
28151
28444
28706
29031
29460
29782
29990
30146
30169
30012
29774
29532
29118
28842
28602
28383
28235
28191
28246
28305
28517
28807
29080
29383
29828
30233
30436
30580
30503
30370
30244
29956
29565
29260
28943
28710
28614
28604
28639
28741
28948
29196
29447
29907
30223
30495
30658
30845
30954
30852
30604
30215
29855
29581
29285
29084
28868
28871
28868
29053
29172
29524
29865
30158
30510
30749
31013
31179
31237
31110
30863
30535
30191
29860
29611
29401
29298
29311
29272
29359
29567
29743
29997
30329
30693
31106
31368
31468
31451
31309
31022
30678
30375
30126
29845
29591
29480
29439
29468
29518
29636
29934
30244
30552
30870
31153
31357
31526
31575
31396
31104
30772
30458
30124
29783
29574
29412
29471
29420
29554
29663
29903
30241
30513
30880
31183
31484
31687
31663
31483
31236
31013
30615
30278
29943
29857
29684
29556
29586
29797
29927
30149
30396
30821
31126
31375
31623
31812
31806
31660
31423
31158
30838
30484
30201
29977
29967
29959
29932
30058
30212
30441
30764
31180
31478
31724
32005
32200
32237
32090
31839
31578
31321
31023
30773
30588
30479
30538
30660
30823
31042
31329
31652
32072
32511
32865
33147
33338
33401
33325
33158
32927
32543
32196
32007
31894
31909
31884
31929
32045
32291
32584
32869
33183
33623
33982
34231
34373
34417
34287
34007
33692
33327
32988
32774
32606
32519
32477
32497
32613
32813
33074
33372
33710
34037
34351
34620
34763
34711
34484
34223
33900
33560
33223
32932
32701
32549
32470
32491
32639
32831
33040
33287
33647
34020
34311
34488
34589
34551
34459
34220
33823
33364
32990
32733
32545
32427
32375
32391
32549
32736
32977
33217
33524
33844
34164
34401
34484
34410
34223
33959
33687
33310
32933
32649
32451
32340
32291
32323
32458
32655
32903
33223
33559
33877
34188
34478
34585
34476
34308
34111
33700
33237
32866
32594
32406
32315
32254
32237
32354
32518
32745
33073
33415
33790
34002
34231
34356
34399
34241
33885
33470
33095
32773
32528
32294
32121
32074
32142
32261
32459
32708
33000
33359
33727
33980
34142
34230
34207
34077
33854
33487
33095
32724
32476
32286
32154
32115
32134
32231
32406
32615
32861
33220
33628
33975
34189
34222
34213
34108
33841
33485
33082
32709
32386
32151
32017
31978
32007
32084
32263
32525
32830
33239
33634
33876
34031
34209
34246
34047
33718
33287
32925
32654
32404
32148
31948
31892
31922
32017
32201
32426
32774
33160
33551
33901
34046
34083
34033
33965
33700
33287
32838
32492
32273
32078
31956
31885
31867
31975
32207
32527
32807
33108
33466
33843
34133
34209
34085
33916
33710
33415
33045
32646
32314
32111
32017
31997
32054
32223
32389
32660
32951
33315
33715
34087
34369
34489
34487
34244
33981
33680
33324
32991
32734
32578
32466
32399
32448
32604
32842
33144
33383
33615
33899
34196
34420
34588
34684
34535
34232
33875
33444
33115
32787
32578
32460
32423
32423
32549
32762
33039
33262
33537
33883
34167
34404
34611
34644
34460
34046
33751
33431
33073
32756
32471
32295
32231
32342
32510
32673
32895
33103
33476
33889
34209
34397
34389
34340
34196
33951
33670
33332
32997
32692
32420
32263
32239
32328
32474
32685
32845
33111
33439
33815
34148
34399
34526
34535
34343
33995
33553
33159
32895
32658
32464
32310
32163
32207
32391
32654
32895
33111
33421
33778
34151
34415
34519
34414
34231
33927
33574
33222
32917
32630
32351
32177
32159
32255
32423
32639
32855
33099
33362
33661
33958
34207
34352
34420
34305
33951
33510
33075
32751
32570
32399
32228
32077
32030
32186
32457
32748
32951
33255
33599
33907
34204
34356
34276
34031
33813
33533
33215
32906
32533
32395
32394
32245
32285
32526
32687
32839
33132
33600
34008
34175
34343
34456
34567
34460
34209
33763
33248
32904
32631
32439
32319
32199
32134
32244
32503
32831
33254
33484
33719
33928
34119
34231
34180
34084
33783
33383
32965
32615
32322
32108
32023
31951
31968
32055
32183
32356
32655
33015
33429
33743
33948
33879
33863
33722
33520
33201
32665
32228
31959
31785
31693
31687
31800
31836
31991
32262
32594
32980
33287
33428
33599
33695
33777
33617
33223
32823
32443
32153
31923
31601
31420
31429
31596
31628
31875
32237
32370
32772
33209
33507
33695
33709
33573
33377
33140
32892
32532
32150
31791
31595
31541
31526
31630
31694
31847
32055
32380
32727
33190
33516
33666
33647
33588
33445
33166
32881
32527
32204
31933
31647
31463
31467
31538
31717
31919
32158
32346
32495
32773
32964
33166
33329
33296
33015
32783
32583
32471
32433
32558
32753
32956
33190
33495
33895
34228
34350
34369
34379
34506
35071
36011
37380
39007
40462
41557
42372
43284
44124
44742
45388
45983
46591
47049
47422
47879
48432
48994
49455
49807
50271
50644
50943
51087
50842
50079
48811
47351
46026
44783
43591
42348
41047
39820
38711
37682
36784
36122
35449
34862
34311
33735
33145
32566
32034
31517
31013
30476
29958
29391
28971
28725
28570
28527
28572
28617
28775
29037
29343
29638
29909
29983
29934
29868
29671
29413
29076
28601
28260
28014
27814
27714
27669
27683
27740
27893
28165
28477
28837
29175
29399
29567
29639
29632
29526
29308
29036
28609
28293
28071
27965
27803
27764
27860
28072
28311
28587
28815
29148
29534
29901
30149
30126
30163
30113
29793
29404
29084
28811
28600
28327
28183
28205
28325
28527
28701
28844
29148
29502
29906
30317
30613
30678
30634
30308
30033
29761
29489
29265
29082
28860
28695
28623
28653
28783
28970
29273
29612
29950
30287
30543
30778
30943
31009
30883
30526
30107
29713
29407
29159
28965
28941
28917
28867
29033
29276
29549
29921
30279
30554
30772
30999
31116
31172
31061
30812
30428
30009
29588
29308
29135
29062
29062
29188
29379
29466
29657
29958
30343
30750
31095
31197
31287
31286
31109
30853
30533
30188
29861
29535
29301
29167
29191
29278
29297
29533
29775
30154
30510
30719
30989
31176
31255
31318
31151
30857
30417
29984
29670
29398
29241
29147
29164
29203
29247
29447
29773
30042
30263
30684
31044
31146
31205
31156
31044
30844
30402
30003
29670
29535
29370
29157
29125
29228
29422
29525
29766
30068
30488
30882
31193
31417
31543
31471
31260
31036
30718
30362
30062
29824
29711
29673
29654
29634
29810
30000
30305
30740
31162
31447
31738
31935
32203
32239
32070
31788
31439
31169
30903
30838
30779
30727
30788
30842
30991
31290
31599
31949
32474
32927
33287
33589
33724
33789
33690
33418
33120
32845
32587
32336
32285
32289
32375
32479
32708
32932
33126
33441
33781
34064
34468
34758
34868
34805
34655
34389
34047
33828
33529
33283
33140
33015
32868
32892
33023
33350
33628
33926
34215
34454
34724
34791
35005
35011
34759
34342
33999
33701
33374
33158
32932
32772
32660
32691
32717
32943
33175
33512
33911
34237
34415
34519
34545
34553
34351
33955
33542
33038
32839
32551
32388
32143
32038
31992
32183
32358
32625
32970
33219
33507
33799
34036
34182
34086
33935
33655
33263
32878
32516
32217
32107
32079
32061
32108
32262
32438
32667
32957
33191
33640
33980
34151
34212
34088
33874
33548
33260
32976
32646
32278
32007
31959
32025
32156
32328
32444
32634
32976
33372
33735
33921
34086
34264
34251
33993
33719
33283
32999
32788
32607
32429
32263
32109
32195
32394
32623
32801
33172
33583
33941
34266
34412
34472
34340
34115
33815
33481
33187
32875
32718
32465
32309
32201
32286
32500
32704
32967
33279
33651
33872
34204
34495
34538
34412
34215
34038
33745
33380
32993
32743
32551
32410
32493
32589
32747
32991
33266
33524
33855
34135
34349
34524
34765
34822
34735
34495
34084
33688
33359
33118
32863
32815
32863
32970
33173
33388
33580
33760
34154
34516
34860
35041
35021
34860
34777
34564
34220
33702
33285
33095
32945
32868
32732
32741
32947
33250
33501
33779
33877
34387
34535
34683
34736
34758
34597
34359
33900
33455
33077
32903
32766
32669
32700
32754
32927
33116
33362
33679
34017
34311
34511
34630
34647
34700
34470
34311
33887
33423
33023
32762
32615
32647
32454
32676
32788
32879
33247
33534
33791
34097
34273
34402
34565
34580
34412
34164
33780
33423
33085
32884
32651
32506
32436
32364
32580
32775
33179
33429
33739
34094
34420
34719
34810
34705
34477
34078
33823
33502
33222
32935
32854
32771
32617
32608
32775
33064
33351
33668
33871
34152
34494
34772
34814
34732
34403
34257
33915
33415
33006
32833
32743
32661
32604
32565
32647
32993
33300
33612
33860
34158
34429
34657
34813
34759
34486
34182
33675
33399
33149
32900
32607
32621
32582
32660
32745
32847
33052
33412
33751
34086
34279
34388
34492
34513
34348
34007
33540
33209
32972
32681
32343
32252
32199
32333
32423
32596
32764
33159
33609
33913
34211
34224
34207
34199
33958
33879
33451
32981
32626
32447
32303
32054
31929
32029
32229
32332
32493
32830
33231
33486
33661
33887
33893
34007
33706
33292
32975
32608
32333
31967
31776
31720
31692
31652
31784
31991
32318
32500
32745
33111
33424
33661
33791
33841
33647
33302
32901
32617
32390
32130
31993
31932
31974
31975
32069
32161
32429
32798
33115
33591
33887
34051
34055
33978
33847
33519
33260
32823
32452
32135
31892
31823
31833
31985
32098
32239
32468
32769
33226
33533
33767
33858
33812
33847
33631
33318
32883
32498
32226
31982
31839
31659
31530
31452
31612
31890
32184
32568
32815
33023
33391
33620
33851
33756
33471
33206
32868
32560
32199
31894
31685
31615
31633
31727
31846
31999
32215
32418
32734
33122
33402
33641
33743
33627
33511
33266
32910
32431
32003
31813
31681
31621
31591
31655
31751
31884
32180
32484
32850
33129
33462
33635
33572
33469
33233
33100
32771
32366
32020
31664
31558
31417
31462
31549
31695
31859
32078
32519
32901
33132
33344
33535
33699
33671
33431
32999
32667
32345
32063
31751
31559
31388
31447
31428
31586
31598
31627
31795
32023
32397
32556
32679
32879
33022
33021
33004
32855
32932
32932
33212
33227
33263
33093
33052
32847
32937
33572
34853
36716
38836
41479
43911
46236
48260
49799
51230
52289
53038
53535
53601
53399
53303
53534
53732
54075
54308
54492
54656
54852
55116
55212
54815
53827
52476
50941
49068
47167
45319
43460
41607
39978
38549
37155
35879
34639
33721
32852
32124
31750
31375
31043
30844
30534
30319
29976
29495
28980
28560
28188
27813
27526
27318
27172
27151
27292
27405
27543
27716
28015
28303
28551
28679
28766
28641
28517
28212
27807
27377
27108
26855
26717
26631
26591
26639
26734
26983
27261
27599
27898
28180
28465
28673
28799
28761
28574
28284
28036
27754
27406
27188
27054
26949
26978
27049
27263
27414
27681
28038
28431
28798
29035
29231
29364
29340
29129
28787
28505
28224
27947
27748
27572
27626
27612
27663
27813
28012
28384
28690
29028
29344
29559
29838
29944
29885
29622
29274
28984
28650
28338
28144
28040
28070
28026
28084
28207
28474
28828
29167
29525
29796
30040
30190
30369
30393
30181
29836
29412
29153
28910
28649
28471
28458
28446
28482
28585
28863
29156
29445
29781
30076
30423
30652
30700
30700
30443
30119
29796
29503
29234
28988
28831
28706
28610
28679
28878
29103
29347
29605
29924
30284
30597
30778
30892
30815
30553
30215
29916
29638
29326
29036
28852
28706
28664
28781
28979
29120
29349
29612
29895
30282
30567
30763
30747
30571
30497
30248
29952
29560
29212
28980
28737
28652
28663
28715
28833
28996
29290
29674
30087
30351
30559
30711
30748
30741
30558
30317
29933
29575
29221
28956
28828
28764
28730
28743
28862
29094
29356
29794
30138
30511
30676
30811
30869
30841
30727
30478
30103
29735
29524
29388
29201
29093
29077
29151
29433
29656
30030
30372
30673
30977
31377
31642
31764
31703
31446
31345
31083
30798
30599
30447
30372
30348
30423
30583
30814
31004
31367
31868
32323
32724
33024
33247
33399
33480
33367
33208
32917
32642
32335
32052
31916
31921
31980
32251
32491
32871
33130
33410
33639
34070
34422
34699
34639
34432
34374
34167
33919
33453
33087
32962
32853
32724
32655
32745
32972
33271
33475
33926
34254
34474
34579
34848
34967
34913
34676
34228
33863
33567
33285
32967
32708
32623
32671
32751
32872
32970
33326
33698
34004
34230
34473
34684
34791
34623
34247
34055
33619
33318
32883
32526
32511
32423
32519
32602
32705
32943
33148
33522
33868
34155
34311
34401
34439
34464
34279
33870
33599
33192
32797
32439
32327
32347
32258
32276
32555
32685
32887
33161
33580
33999
34269
34335
34260
34253
34084
33770
33500
33068
32703
32527
32437
32401
32413
32519
32617
32739
32880
33253
33684
34020
34221
34373
34404
34357
34129
33851
33511
33056
32639
32519
32413
32334
32281
32279
32327
32684
32937
33321
33543
33799
34124
34298
34206
33983
33799
33534
33197
32782
32428
32199
32128
32042
31926
31971
32192
32465
32708
32969
33173
33572
33900
34031
34018
34023
33852
33538
33055
32629
32375
32116
31877
31727
31836
31993
32156
32294
32511
32947
33407
33647
33799
34121
34212
34095
33707
33527
33242
32782
32321
32237
32127
32038
31949
31935
32223
32452
32790
32989
33189
33655
33886
34108
34055
33953
33799
33527
33042
32671
32476
32287
32126
32003
32007
31990
32183
32471
32775
33049
33359
33639
33855
34065
34102
34124
33799
33410
33137
32815
32555
32279
32004
31823
31871
32019
32191
32365
32597
32804
33232
33546
33924
34055
34031
33838
33643
33438
33154
32772
32446
32135
32022
32016
31948
32006
32117
32450
32796
33214
33500
33781
33908
34167
34283
34181
33975
33599
33183
32817
32495
32213
32150
32134
32123
32161
32309
32479
32886
33251
33669
33891
34004
34261
34341
34268
34095
33763
33316
32907
32595
32413
32300
32145
32109
32263
32492
32657
32855
33271
33666
33971
34093
34242
34258
34124
33949
33701
33357
32972
32629
32431
32202
32254
32311
32374
32445
32587
32924
33391
33625
33915
34079
34331
34477
34391
34167
33780
33257
33036
32784
32439
32212
32178
32254
32365
32545
32657
32815
33268
33743
34007
34094
34348
34487
34329
34001
33663
33167
32883
32668
32477
32239
32102
32207
32332
32578
32762
33007
33309
33577
33912
34197
34362
34390
34244
33965
33590
33166
32867
32623
32427
32263
32132
32113
32134
32252
32623
32943
33263
33569
33750
34070
34285
34407
34268
33908
33767
33401
33017
32629
32309
32183
32141
32245
32390
32527
32658
32861
33113
33552
33914
34140
34340
34331
34143
33793
33476
33187
32876
32620
32370
32091
32006
31981
32037
32278
32541
32799
33108
33487
33815
33963
34109
34023
34053
33871
33521
33054
32729
32451
32262
32235
32119
32086
32180
32342
32700
33070
33447
33735
33980
34103
34246
34407
34405
34226
33815
33383
32934
32819
32592
32491
32321
32218
32290
32502
32867
33138
33394
33668
33947
34263
34455
34540
34410
34081
33669
33405
33087
32797
32402
32184
32116
32197
32279
32398
32521
32704
33094
33427
33771
33919
33974
33870
33890
33717
33266
32819
32474
32244
32077
31911
31792
31733
31839
31969
32226
32550
32839
33212
33532
33684
33916
33971
33927
33622
33176
32654
32429
32227
32015
31730
31601
31599
31711
32012
32272
32436
32668
33071
33396
33669
33764
33735
33588
33263
33037
32703
32377
31938
31681
31476
31527
31585
31569
31730
32030
32337
32697
32982
33301
33572
33703
33848
33832
33635
33216
32806
32388
32120
32018
31929
31838
31751
31831
32092
32465
32839
33069
33390
33642
33950
34004
33799
33722
33432
33047
32554
32116
31918
31899
31935
32097
32386
33007
33659
34327
34868
35445
36123
36608
36587
36247
36299
36271
36461
37588
38807
39921
41590
43087
44346
45509
46753
47930
49054
49889
50564
51039
51580
52215
52719
53207
53620
53701
53437
53527
53335
52822
51969
50542
49379
48135
46936
45732
44372
42977
41740
40746
39870
39028
38175
37224
36167
34967
33823
32973
32084
31229
30489
29945
29526
29247
29057
28981
29082
29140
29226
29443
29678
29977
30156
30108
30038
29883
29686
29312
28810
28378
28065
27918
27735
27559
27526
27599
27758
28028
28350
28671
28933
29191
29447
29612
29713
29639
29293
29013
28669
28374
28004
27782
27668
27692
27670
27680
27900
28188
28534
28815
29130
29481
29853
30054
29983
29903
29797
29519
29074
28743
28484
28259
28193
28052
28085
28208
28502
28666
28947
29326
29759
30179
30420
30462
30500
30401
30292
29985
29479
29119
28887
28764
28515
28498
28529
28711
28899
29059
29412
29742
30181
30566
30713
30847
30986
30927
30537
30199
29927
29608
29276
29103
28963
28939
28955
29021
29144
29511
29684
30095
30503
30753
31068
31258
31206
31014
30756
30394
30097
29821
29460
29279
29213
29247
29300
29323
29514
29821
30050
30552
30810
31223
31461
31513
31482
31323
31191
30863
30388
30113
29821
29585
29492
29545
29506
29540
29741
30025
30167
30517
30877
31224
31512
31623
31516
31391
31137
30922
30556
30077
29770
29556
29473
29447
29390
29401
29575
29796
30117
30482
30844
31132
31286
31347
31388
31231
31052
30743
30394
30044
29735
29471
29285
29226
29236
29396
29612
29762
30007
30367
30808
31196
31367
31382
31366
31266
31126
30884
30381
30023
29838
29772
29564
29460
29503
29716
29920
30025
30352
30692
31141
31553
31742
31812
31819
31697
31532
31292
30988
30623
30399
30248
30192
30258
30303
30330
30508
30810
31159
31611
32090
32507
32775
32869
32910
32903
32796
32607
32148
31880
31833
31743
31540
31559
31751
31811
31971
32347
32739
33031
33383
33797
34174
34306
34212
34098
33887
33683
33342
32951
32580
32374
32383
32407
32305
32409
32714
33031
33219
33501
33799
34284
34566
34622
34508
34358
34004
33798
33438
33140
32875
32542
32360
32316
32273
32423
32638
32844
33009
33334
33604
34084
34364
34379
34326
34145
34022
33780
33396
33071
32697
32500
32331
32200
32218
32289
32554
32862
33146
33356
33647
33987
34242
34405
34382
34179
33853
33609
33309
32967
32511
32307
32231
32292
32359
32495
32655
32807
33019
33335
33638
34047
34142
34384
34414
34165
34145
33627
33261
33026
32799
32509
32259
32208
32351
32578
32793
32972
33139
33438
33703
34076
34368
34538
34558
34388
34022
33638
33327
33031
32784
32481
32263
32183
32351
32495
32639
32824
33077
33373
33799
34116
34362
34344
34303
34273
34105
33806
33235
32801
32447
32332
32317
32267
32183
32270
32440
32804
33167
33460
33708
33943
34247
34412
34445
34145
33913
33625
33353
32926
32578
32479
32369
32182
32166
32247
32431
32690
33031
33393
33720
33927
34087
34311
34380
34237
34016
33602
33103
32687
32486
32340
32199
32039
32037
32207
32450
32687
32904
33127
33452
33743
33914
33988
34076
34039
33746
33316
32919
32575
32415
32276
32153
31995
31937
32065
32261
32486
32828
33189
33531
33852
33991
34063
34047
33860
33568
33287
32966
32686
32399
32124
31964
31914
31941
32040
32244
32539
32815
33204
33567
33777
33933
34031
33983
33871
33635
33435
33123
32790
32500
32240
31983
31932
32103
32122
32253
32498
32725
33126
33543
33826
34049
34147
34063
33932
33671
33290
33012
32705
32449
32269
32156
32143
32075
32199
32319
32545
32830
33153
33436
33847
34165
34317
34228
34000
33776
33562
33007
32598
32455
32282
32021
31988
32116
32087
32239
32610
32910
33073
33383
33735
34039
34011
33962
33995
33766
33255
32838
32623
32342
32026
31863
31855
31962
32007
32127
32444
32803
33031
33299
33671
33988
33959
33869
33907
33634
33191
32802
32497
32076
31829
31769
31881
31836
31911
32141
32481
32660
32959
33461
33785
33857
33927
34111
33914
33540
33244
32957
32493
32169
32031
32044
31876
31938
32142
32373
32583
32729
33014
33335
33695
34044
34196
34181
33916
33636
33256
32901
32596
32323
32073
31892
31799
31903
32066
32327
32477
32689
32998
33313
33774
34041
34118
34028
33824
33612
33352
33007
32544
32284
32064
31989
31978
31911
31980
32162
32391
32828
33159
33405
33665
34022
34198
34222
33961
33671
33347
33062
32811
32639
32372
32199
32135
32310
32478
32479
32735
33015
33575
33882
34123
34241
34471
34530
34388
34023
33677
33196
32932
32724
32467
32314
32301
32400
32623
32711
32877
33067
33470
33919
34231
34325
34366
34287
34244
34040
33557
33111
32711
32541
32398
32183
32028
32104
32293
32480
32730
32910
33191
33507
33919
34157
34255
34229
33977
33662
33236
32928
32633
32425
32308
32156
32014
32004
32095
32334
32623
32961
33202
33483
33722
34087
34232
34271
34143
33756
33359
32975
32608
32428
32263
32181
32025
31998
32165
32443
32737
32980
33231
33511
33927
34180
34247
34129
33927
33657
33455
33145
32671
32357
32151
32175
32138
32063
32361
32417
32865
33022
33445
33766
33953
34099
34383
34421
34308
33947
33540
33236
32990
32764
32564
32325
32257
32298
32406
32735
32985
33303
33473
33703
33903
34095
34191
34151
33932
33607
33346
33103
33135
33213
33439
33700
33879
34181
34580
35030
35502
36063
36428
36386
36300
36286
36711
37589
38732
39996
40930
41646
42020
42724
43244
43799
44263
44849
45505
45991
46636
47348
48102
48665
49201
49727
50118
50238
50046
50047
49463
48260
46773
45620
44481
43574
42468
41356
40166
38970
38135
37428
36814
36274
35713
35095
34492
33836
33314
32715
32132
31500
30962
30414
29967
29662
29447
29417
29447
29582
29726
29805
30041
30319
30591
30806
30878
30763
30508
30267
29895
29527
29212
28975
28739
28533
28512
28557
28788
28882
29105
29423
29847
30101
30340
30584
30739
30599
30447
30223
29959
29631
29231
29025
28981
28749
28713
28816
28992
29091
29343
29727
29972
30323
30736
30926
30942
30956
30822
30375
30017
29714
29412
29030
28854
28841
28819
28742
28908
29142
29461
29696
30017
30357
30767
30860
30944
31005
30875
30519
30141
29823
29599
29253
29015
28923
28916
29033
29057
29212
29447
29753
30133
30551
30900
31127
31124
31071
30893
30620
30247
29956
29663
29414
29175
28947
28849
28951
29110
29334
29586
29895
30247
30510
30823
30979
31197
31095
30861
30620
30346
29873
29514
29301
29148
28908
28836
28874
29079
29210
29413
29703
30115
30455
30705
30869
30970
31013
30892
30591
30151
29718
29404
29109
28988
28909
28748
28740
28847
29050
29369
29639
29883
30191
30444
30671
30832
30843
30538
30244
29959
29559
29205
28833
28663
28633
28578
28486
28633
28835
29165
29347
29847
30182
30521
30793
30767
30871
30727
30360
30013
29664
29425
29127
28874
28815
28807
28935
28992
29204
29438
29781
30166
30586
30879
31036
31157
31171
31033
30780
30489
30156
29868
29659
29373
29276
29263
29375
29575
29735
29932
30191
30678
31046
31215
31448
31687
31797
31719
31396
31064
30684
30440
30314
30183
30034
30044
30148
30439
30707
30999
31326
31785
32262
32604
32908
33015
32999
32847
32625
32455
32155
31821
31567
31471
31517
31539
31500
31639
31830
32212
32608
33047
33371
33608
33772
33980
33951
33698
33509
33276
32922
32479
32164
32039
32034
31840
31855
32132
32457
32784
33031
33255
33494
33919
34175
34159
34095
33975
33727
33269
32807
32612
32402
32078
31898
31979
32022
32102
32315
32647
32849
33132
33521
33890
34066
34012
33844
33792
33641
33246
32780
32411
32212
32065
31932
31802
31834
31958
32221
32541
32886
33188
33435
33600
33960
34145
34007
33745
33585
33237
32741
32343
32167
32071
31927
31815
31799
31936
32239
32500
32692
33044
33508
33831
33873
34095
34119
33812
33409
33156
32831
32479
32108
31885
31832
31853
31895
31959
32246
32551
32820
33038
33297
33623
33959
34102
34038
33854
33607
33377
32936
32518
32327
32126
31989
32021
31931
32198
32287
32504
32871
33287
33652
33826
33899
34100
34131
33947
33492
33002
32807
32542
32228
31993
31788
31826
31964
32103
32206
32388
32623
33072
33457
33792
33960
33935
33843
33759
33557
33193
32715
32303
32174
32101
31932
31799
31860
32124
32402
32610
32871
33121
33630
34001
34103
34124
34173
34010
33730
33276
32826
32590
32373
32103
31966
31937
32093
32137
32271
32660
33027
33323
33564
33973
34200
34279
34127
33836
33725
33483
32969
32524
32351
32223
32070
31987
32041
32319
32585
32794
33084
33493
33940
34140
34222
34439
34414
34044
33860
33568
33103
32823
32700
32455
32350
32247
32414
32553
32823
33084
33365
33611
33959
34336
34597
34566
34468
34476
34232
33764
33454
33178
32835
32619
32612
32591
32554
32599
32903
33224
33463
33732
34188
34564
34629
34719
34676
34305
34219
33882
33367
33205
32983
32711
32502
32605
32732
32837
32895
33061
33426
33783
34119
34553
34652
34555
34662
34547
34180
33791
33446
33147
32815
32639
32605
32586
32565
32668
32949
33299
33527
33819
34250
34556
34647
34621
34740
34591
34302
33858
33362
33126
32978
32774
32581
32498
32507
32764
33049
33399
33663
33926
34177
34511
34821
34857
34686
34415
34181
33884
33562
33173
32887
32738
32651
32581
32749
32846
32972
33326
33671
34073
34484
34655
34799
34722
34748
34599
34395
34095
33741
33359
32970
32869
32784
32789
32823
33002
33154
33372
33591
34012
34406
34708
34848
34843
34655
34511
34202
34033
33550
33061
32903
32720
32648
32543
32510
32817
33066
33197
33474
33799
34265
34383
34401
34620
34517
34300
33926
33461
33159
32936
32660
32442
32220
32167
32313
32503
32717
32963
33206
33447
33919
34089
34387
34331
34142
34045
33719
33332
32838
32375
32262
32076
32079
31998
31984
32145
32476
32811
33096
33404
33690
33958
34337
34415
34311
34043
33920
33636
33237
32790
32444
32425
32411
32292
32357
32619
32880
33137
33448
33724
34132
34423
34663
34855
34727
34455
34257
34028
33654
33231
33109
32990
32786
32693
32868
33113
33268
33447
33757
34138
34591
34759
34811
35076
35078
34737
34270
33972
33693
33151
32949
32876
32686
32560
32703
32813
33031
33237
33583
33959
34311
34492
34639
34701
34669
34546
34164
33700
33338
33039
32682
32410
32369
32417
32556
32695
32843
32965
33334
33737
34127
34393
34465
34389
34422
34255
34033
33647
33175
32764
32461
32407
32167
32034
32132
32307
32564
32722
32997
33381
33756
33851
33991
34045
34166
33869
33415
33044
32708
32352
32135
31874
31728
31778
31914
32063
32263
32493
32820
33327
33551
33705
33766
33927
33878
33658
33388
32938
32458
31924
31614
31350
31083
31143
31102
31216
31392
31882
32511
33067
33852
34471
34884
35132
35431
35263
34987
34320
33579
33183
33371
34561
36359
38047
40450
42705
44784
46886
48914
50367
52034
53273
53924
54206
54279
54127
54324
54167
53698
53303
52983
52631
52439
52052
52079
51590
50676
49306
48559
47644
46381
45076
43732
42390
40956
39276
38024
36596
34890
33239
32001
31036
30072
29326
28961
28679
28670
28661
28679
28823
28892
29017
29115
29150
28999
28716
28338
27955
27568
27175
26839
26631
26459
26393
26431
26563
26687
26856
27161
27430
27773
28006
28159
28167
28203
28060
27778
27376
27082
26716
26458
26309
26190
26239
26304
26470
26656
26932
27268
27665
28008
28258
28468
28500
28465
28353
28060
27728
27354
27068
26896
26775
26684
26641
26667
26911
27094
27420
27740
28094
28438
28669
28989
29057
28989
28727
28380
28133
27804
27527
27361
27180
27076
27097
27104
27329
27458
27806
28131
28470
28805
29129
29332
29367
29316
29099
28875
28559
28188
27884
27636
27538
27469
27410
27511
27686
27884
28106
28452
28815
29030
29442
29586
29625
29724
29572
29277
28838
28504
28228
28024
27848
27723
27703
27832
28004
28222
28506
28772
29122
29374
29619
29857
30025
29962
29716
29495
29191
28775
28426
28150
28009
27983
27940
27972
28086
28297
28612
28844
29309
29590
29878
30053
30151
30034
29812
29508
29146
28809
28624
28304
28229
28109
28052
28231
28359
28564
28830
29111
29479
29765
29956
30156
30228
30215
29940
29789
29414
29020
28644
28399
28283
28180
28239
28327
28426
28636
28887
29191
29604
29907
30184
30351
30450
30469
30343
30033
29671
29265
29028
28810
28733
28543
28628
28665
28763
29047
29291
29678
29993
30269
30559
30769
30925
30885
30635
30314
30079
29850
29607
29343
29159
29110
29224
29345
29622
29901
30192
30522
30978
31381
31767
31963
32069
32007
31897
31744
31528
31183
31147
30940
30804
30872
30908
31220
31418
31709
32030
32435
32774
33301
33538
33653
33870
33839
33860
33520
33095
32724
32508
32202
32189
32069
31937
32072
32276
32551
32849
33055
33287
33674
33911
34229
34205
34004
33701
33335
32982
32524
32359
32031
31807
31719
31695
31749
31927
32005
32405
32559
32793
33110
33422
33487
33438
33321
33094
32814
32413
32079
31807
31551
31314
31235
31195
31252
31451
31687
31912
32135
32429
32670
32999
33159
33308
33123
32775
32552
32183
31949
31613
31319
31072
31052
30944
31111
31183
31281
31573
31926
32068
32415
32789
32935
32980
32828
32624
32348
31989
31559
31367
31087
30997
30784
30917
30942
30996
31271
31656
31897
32121
32560
32935
33103
33009
33016
32764
32642
32236
31830
31538
31343
31156
31173
31253
31343
31493
31618
31911
32298
32580
32991
33267
33606
33622
33468
33165
32989
32729
32274
32145
31866
31694
31628
31673
31751
32100
32280
32535
32851
33218
33735
33892
34028
34077
34175
33899
33540
33228
32845
32739
32458
32222
32215
32253
32302
32431
32732
32956
33319
33823
34081
34282
34359
34507
34486
34182
33959
33628
33159
32775
32598
32448
32311
32412
32543
32712
32811
33050
33420
33662
34122
34442
34503
34431
34449
34307
34241
33887
33453
33023
32850
32695
32620
32692
32725
32839
33102
33434
33687
34239
34492
34622
34836
34873
34764
34475
34186
34039
33597
33282
33126
32873
32941
32838
32807
33054
33252
33707
33972
34231
34541
34967
34999
34872
34894
34852
34463
33901
33575
33204
33091
33053
32877
32752
32900
33135
33237
33662
33963
34206
34621
34858
35063
35234
35068
34774
34485
34071
33830
33431
33132
33001
32964
32901
33173
33237
33396
33828
34117
34669
34999
35168
35302
35332
35271
34953
34751
34439
33984
33610
33426
33347
33172
33190
33453
33628
33729
33844
34188
34567
34900
35318
35335
35188
35207
35012
34693
34247
34018
33622
33303
33009
33040
32962
33188
33311
33415
33596
33967
34348
34639
35127
35199
35090
35143
34853
34716
34165
33675
33237
33078
32901
32926
32919
32935
33031
33271
33540
33854
34298
34494
34652
34881
34879
34927
34604
34197
33775
33318
32997
32761
32575
32459
32449
32606
32853
33003
33181
33670
34100
34272
34446
34734
34924
34640
34390
34124
33685
33268
32947
32764
32686
32399
32428
32463
32567
32879
33218
33599
33838
34199
34429
34628
34588
34627
34388
33895
33528
33204
32814
32541
32377
32413
32333
32565
32647
32798
33131
33372
33966
34204
34433
34593
34547
34381
34112
33836
33472
33027
32804
32612
32438
32334
32282
32326
32431
32775
32949
33415
33647
33957
34199
34463
34340
34303
33990
33692
33391
32844
32550
32445
32416
32161
32225
32396
32490
32911
33076
33287
33812
34157
34431
34511
34747
34581
34260
33863
33508
33214
32775
32511
32407
32300
32097
32204
32314
32710
32799
33188
33622
33999
34167
34191
34282
34207
33904
33612
33116
32631
32361
32100
32102
31955
31840
32047
32109
32465
32657
32831
33196
33399
33725
33703
33637
33508
33217
32967
32380
31935
31700
31374
31131
30960
31015
31147
31370
31525
31729
32088
32446
32734
32957
33183
33332
33239
32916
32578
32123
31784
31464
31395
31139
30989
31029
31175
31447
31717
31929
32225
32579
33061
33212
33255
33340
33212
32927
32748
32311
31917
31632
31434
31324
31191
31295
31324
31461
31721
32212
32490
32850
33239
33497
33677
33600
33306
33091
32795
32453
32013
31881
31682
31524
31416
31342
31411
31591
31850
32116
32544
33037
33327
33519
33512
33469
33119
32900
32396
31863
31372
31066
30862
30710
30995
31239
31593
32121
32825
33473
34154
34900
35150
35108
34887
34742
35003
35687
36999
38492
40151
41711
43449
45160
46855
48494
49868
51019
51753
52580
53028
53584
54319
54716
55211
55457
55292
54967
54614
54297
53726
52778
51335
50092
48744
47375
45831
44207
42879
41641
40562
39830
38772
37807
36916
35651
34629
33311
32263
31260
30240
29388
28869
28414
28182
27953
27829
27873
28020
28206
28423
28695
29039
29188
29271
29197
29002
28621
28281
27863
27413
27009
26787
26551
26423
26396
26500
26682
26898
27285
27631
28077
28462
28780
28988
29052
28956
28668
28306
27890
27451
27154
26922
26778
26693
26733
26809
27092
27367
27663
28070
28583
29068
29401
29589
29719
29558
29239
28974
28522
28085
27761
27529
27404
27265
27298
27422
27670
27942
28200
28610
29038
29495
29884
30093
30123
29939
29740
29439
28927
28481
28090
27834
27740
27583
27580
27684
27940
28205
28542
28906
29476
29839
30215
30330
30316
30287
30011
29711
29233
28762
28487
28214
28048
27942
27972
28123
28330
28602
28926
29277
29751
30189
30550
30701
30764
30588
30432
30086
29584
29108
28753
28446
28281
28210
28251
28352
28551
28804
29212
29640
30081
30429
30678
30919
31058
30971
30686
30247
29741
29348
28967
28668
28474
28332
28423
28570
28792
29070
29372
29909
30372
30717
30935
31225
31341
31179
30820
30351
29887
29503
29116
28807
28582
28600
28615
28718
28850
29191
29562
29920
30341
30871
31228
31465
31445
31336
31044
30572
30073
29686
29263
28966
28807
28802
28831
28929
29083
29464
29846
30196
30660
31162
31489
31716
31919
31703
31299
31036
30546
29990
29690
29433
29191
29079
29102
29316
29550
29809
30188
30631
31236
31734
32068
32275
32420
32398
32074
31591
31294
30854
30546
30229
30010
30075
30178
30303
30518
31026
31556
32034
32468
33131
33564
33914
33964
33831
33637
33359
33009
32718
32381
32109
32034
32135
32215
32338
32597
33003
33532
34055
34483
34924
35306
35668
35679
35420
35276
34948
34590
34007
33564
33191
33060
33041
33095
33277
33497
33703
34151
34610
35156
35508
36020
36093
35981
36007
35591
35308
34766
34189
33693
33474
33287
33190
33222
33219
33349
33747
34183
34638
34919
35460
35778
36154
36061
35764
35542
35134
34735
34143
33561
33300
33119
33031
33024
33046
33151
33391
33859
34348
34724
35311
35639
35751
35756
35423
35260
34786
34407
33881
33380
33221
33007
32969
32807
32756
33058
33366
33772
34188
34677
35112
35277
35295
35444
35399
35123
34604
34087
33676
33367
33020
32673
32483
32361
32575
32749
33087
33465
33885
34244
34605
34917
35116
35313
35182
34776
34281
33799
33333
32999
32804
32516
32307
32229
32441
32700
32873
33178
33662
34114
34503
34725
34908
35043
34875
34684
34055
33623
33172
32775
32384
32102
32142
32196
32248
32383
32543
32994
33467
33943
34228
34404
34689
34789
34644
34174
33981
33543
32991
32503
32252
32111
31971
31879
31901
32109
32446
32806
33156
33548
33858
34180
34386
34522
34327
34003
33584
33145
32714
32318
31919
31700
31604
31630
31751
31987
32114
32422
32775
33249
33710
33908
33919
34110
34024
33887
33455
32918
32441
32037
31837
31679
31623
31585
31644
31806
32014
32401
32801
33271
33703
33958
34047
33943
33836
33629
33333
32909
32399
32022
31821
31740
31677
31701
31783
31920
32191
32424
32801
33287
33716
34036
34278
34251
34104
33764
33428
33053
32641
32210
31892
31801
31785
31782
31816
32026
32261
32750
33212
33663
33935
34079
34399
34481
34238
33986
33756
33353
32895
32573
32195
31911
31959
31993
32149
32370
32604
32860
33326
33807
34197
34579
34727
34705
34525
34119
33822
33434
33072
32655
32302
32142
32028
32134
32320
32543
32759
33126
33397
33942
34361
34704
34804
34767
34504
34229
33951
33556
33126
32820
32547
32325
32179
32173
32189
32452
32783
33190
33662
34068
34346
34622
34668
34778
34676
34430
34079
33590
33066
32687
32351
32255
32187
32166
32158
32284
32648
33126
33469
33789
34245
34631
34831
34790
34632
34228
33977
33615
33171
32783
32351
32021
31959
32039
32188
32407
32615
32911
33303
33841
34295
34563
34632
34666
34623
34376
33916
33271
32882
32654
32405
32135
31894
31883
32063
32249
32471
32758
33353
33893
34284
34488
34535
34710
34671
34414
33904
33287
32959
32615
32197
31948
31741
31788
31975
32180
32487
32834
33211
33630
33927
34385
34599
34748
34529
34219
33651
33255
32877
32477
32067
31741
31724
31689
31681
32099
32306
32759
33309
33807
34142
34425
34666
34823
34759
34517
34020
33511
33198
32863
32532
32253
32084
32175
32360
32557
32803
33062
33535
34046
34530
34882
34951
34900
34904
34685
34196
33554
33250
32932
32464
32143
32177
32163
32151
32276
32479
32921
33439
33925
34236
34421
34690
34789
34694
34260
33727
33166
32756
32389
32044
31788
31572
31495
31533
31828
32174
32449
32828
33445
33894
34292
34452
34400
34151
33988
33625
33049
32455
32028
31776
31561
31381
31335
31551
31780
32039
32343
32743
33388
33856
34153
34276
34259
34165
33924
33564
32997
32423
31948
31630
31405
31372
31332
31395
31557
31922
32313
32790
33287
33699
33927
34068
34086
34047
33831
33348
32711
32111
31849
31509
31222
31131
31286
31453
31593
31822
32127
32661
33181
33643
33874
33962
34156
34031
33591
33108
32545
32159
31799
31514
31191
30945
30797
30918
31100
31361
31735
32121
32636
33244
33903
34540
34951
35100
35154
35019
35052
34965
34823
34508
34100
33916
33586
33475
33743
34830
36567
38452
40351
41863
43197
44463
45361
45908
46204
46599
46895
46966
46854
46767
46855
46943
47476
47980
48501
49034
49407
49623
50025
49761
49076
48199
47188
45828
44745
43421
41670
39828
38292
37018
35911
34813
33840
33023
32543
32129
31867
31825
31891
31919
32016
31939
31881
31621
31282
30775
30176
29589
29161
28796
28623
28524
28453
28475
28559
28761
29059
29404
29807
30132
30397
30498
30469
30206
29931
29581
29143
28748
28499
28308
28116
27990
27988
28107
28336
28644
28950
29284
29697
30018
30265
30423
30511
30403
30112
29735
29315
28967
28641
28451
28388
28348
28372
28533
28753
29014
29393
29803
30138
30419
30675
30808
30932
30652
30341
29995
29691
29364
29037
28746
28650
28628
28781
28948
29148
29386
29638
29975
30369
30745
31095
31303
31202
30951
30643
30391
30028
29618
29309
29123
29054
29052
29046
29159
29380
29632
30014
30471
30901
31143
31303
31405
31362
31285
31070
30670
30169
29836
29574
29478
29394
29244
29253
29382
29580
29906
30332
30780
31135
31377
31582
31654
31659
31551
31308
30983
30631
30215
29919
29670
29580
29529
29662
29876
30055
30208
30599
30954
31239
31527
31718
31927
32004
31845
31509
31172
30875
30588
30211
30019
29842
29845
29986
30011
30198
30613
30975
31212
31511
31751
32077
32170
32168
31924
31594
31359
31060
30564
30234
30086
29969
29799
29894
30147
30471
30671
30933
31233
31728
32071
32199
32298
32437
32295
32044
31625
31213
30975
30782
30519
30442
30423
30522
30659
30772
30983
31461
31892
32151
32470
32683
32863
32958
32766
32484
32169
31932
31506
31262
31056
31006
31028
31066
31117
31335
31644
32039
32277
32597
33093
33405
33415
33447
33233
33053
32847
32476
32077
31751
31712
31717
31607
31655
31931
32317
32655
32977
33354
33623
34091
34419
34559
34426
34332
34244
33821
33367
33068
32959
32769
32559
32450
32675
32711
32837
33309
33593
33799
34348
34506
34705
34911
34806
34543
34462
34180
33686
33331
33143
32957
32690
32587
32772
32945
33074
33263
33765
34180
34430
34607
34924
35060
34975
34759
34471
34255
33772
33287
33155
32914
32519
32319
32348
32559
32855
33096
33472
33937
34548
35046
35399
35519
35428
35094
34823
34439
33967
33411
32953
32631
32567
32524
32455
32549
32783
33269
33757
34108
34493
35053
35402
35604
35543
35225
35045
34660
34211
33626
33173
33012
32865
32647
32684
32929
33138
33431
33860
34484
35007
35267
35567
35813
35738
35412
35262
34812
34055
33742
33412
33036
32792
32679
32799
32980
33098
33329
33777
34343
34884
35265
35510
35532
35458
35356
35035
34495
33878
33268
33012
32772
32435
32309
32357
32575
32743
32904
33253
33791
34303
34591
34820
35052
35103
34800
34372
33775
33358
32861
32457
32012
31750
31727
31736
31871
32016
32263
32734
33189
33503
33799
34193
34373
34348
34089
33677
33087
32559
32169
31770
31431
31173
31000
31044
31142
31366
31741
32108
32574
32980
33378
33665
33756
33691
33388
33098
32682
32152
31628
31143
30799
30636
30633
30607
30631
30807
31220
31636
32116
32575
32965
33214
33332
33391
33252
32883
32343
31716
31238
30787
30471
30279
30172
30287
30457
30742
30927
31316
31767
32263
32682
32966
33031
32953
32743
32577
32135
31580
31035
30581
30269
30036
29975
30063
30274
30476
30777
31023
31516
32054
32495
32789
32975
32951
32826
32510
32085
31511
31008
30659
30361
30276
30198
30131
30210
30512
30908
31167
31609
32175
32658
32996
33044
32936
32844
32551
31999
31378
30861
30623
30395
30119
30014
30063
30305
30572
30868
31230
31671
32132
32654
32988
33007
32876
32788
32488
32060
31467
31007
30766
30471
30231
30150
30247
30463
30654
30879
31255
31799
32423
32910
33118
33143
33086
33022
32714
32117
31525
31162
30804
30457
30168
30186
30276
30447
30692
30981
31428
31884
32364
32775
32982
33079
33286
33157
32761
32218
31572
31167
30860
30516
30260
30117
30207
30295
30479
30803
31302
31780
32229
32661
32941
33211
33078
32742
32511
32023
31415
30893
30490
30330
30221
30168
30087
30225
30508
30912
31299
31731
32182
32772
33214
33407
33286
33103
32861
32492
32004
31487
31119
30772
30708
30704
30647
30841
31178
31631
32117
32551
32967
33450
33815
34007
33898
33743
33476
32926
32276
31902
31596
31228
31007
30919
31025
31172
31398
31751
32291
32724
33040
33615
33973
33956
33797
33612
33335
32935
32358
31787
31362
31150
30997
30785
30746
30959
31300
31550
32029
32593
32978
33333
33669
33959
33919
33585
33254
32815
32191
31730
31482
31159
30869
30879
30983
31103
31387
31784
32284
32845
33200
33559
33898
34044
34031
33695
33303
32926
32402
31835
31638
31413
31213
31054
31048
31292
31633
31982
32309
32695
33319
33756
33956
33999
34172
34063
33709
33071
32548
32052
31672
31444
31327
31242
31277
31436
31661
31975
32463
32983
33460
33852
34096
34113
34132
33902
33655
33156
32586
32148
31765
31543
31394
31319
31275
31294
31396
31744
32100
32535
32884
33399
33751
34026
34126
34020
33992
33837
33707
33455
33311
33524
33612
33574
33426
33177
33359
33781
34615
36073
38057
40264
42375
43780
45199
46328
47133
47556
47651
48030
48263
48276
48116
48295
48644
49052
49380
49695
50142
50753
51392
51791
51719
51207
50122
48863
47403
45572
44029
42391
40634
38807
37748
36644
35623
34635
33711
33210
32775
32483
32414
32413
32531
32433
32118
31637
31278
30668
29892
29246
28725
28387
28213
28028
27972
28080
28318
28636
28980
29398
29830
30191
30523
30743
30752
30465
29999
29463
29083
28734
28433
28287
28551
30677
32856
34502
35935
37033
37770
38370
39127
39612
39920
40212
40135
39711
39415
38964
38319
37639
37102
36909
36612
36624
36479
36521
36564
36892
37223
37512
37999
38272
38314
38260
37967
37735
37231
36707
36181
35583
35057
34846
34667
34566
34577
34663
34719
34868
35177
35580
35845
36055
36204
36322
36276
35908
35583
35030
34415
33864
33366
33118
32965
32926
32902
32942
33070
33251
33567
33951
34353
34695
34839
34740
34466
34297
33960
33436
32764
32207
31861
31620
31430
31291
31252
31455
31712
31997
32345
32677
33010
33220
33559
33654
33570
33183
32638
32188
31647
31204
30756
30487
30217
30209
30332
30544
30759
30958
31303
31739
32185
32539
32676
32862
32759
32455
31985
31506
30946
30484
30157
29916
29697
29601
29654
29817
30009
30290
30631
31090
31587
31986
32087
32254
32111
31799
31334
30807
30324
29938
29602
29418
29367
29378
29442
29567
29820
30074
30383
30825
31198
31603
31899
32026
32044
31873
31438
31023
30443
30007
29711
29626
29467
29350
29439
29560
29790
30158
30567
30969
31339
31773
31973
31941
31991
31799
31341
30937
30454
30045
29745
29572
29447
29378
29508
29745
30026
30343
30863
31350
31759
32299
32445
32500
32583
32263
31951
31542
31035
30727
30596
30423
30351
30433
30503
30749
31135
31503
31934
32372
32914
33438
33677
33700
33870
33510
33162
32783
32254
31847
31590
31473
31231
31343
31525
31781
32039
32391
32940
33285
33566
34012
34061
34005
34118
33756
33337
32918
32367
31903
31748
31511
31398
31440
31438
31484
31878
32117
32486
33077
33375
33676
34127
34081
33861
33703
33319
32738
32303
31960
31511
31414
31319
31463
31681
31861
32005
32479
32730
33156
33775
33985
34175
34384
34154
33793
33564
32890
32445
32105
31807
31703
31585
31729
31919
32071
32281
32735
32967
33401
33839
34288
34311
34255
34336
33883
33505
32935
32545
32193
31811
31504
31550
31471
31580
31962
32122
32545
32887
33407
33986
34238
34508
34671
34503
34237
33957
33358
32897
32614
32470
32216
31996
32047
32103
32348
32732
33084
33441
33813
34364
34461
34540
34808
34540
34290
33960
33409
33055
32636
32332
32143
32053
31960
32162
32279
32526
32940
33270
33727
34188
34397
34606
34837
34676
34335
33887
33608
32997
32608
32389
32150
32022
31934
32133
32374
32542
32861
33322
33799
34342
34532
34772
34727
34750
34258
33795
33325
32873
32284
31965
31789
31716
31556
31674
31934
32218
32495
32916
33354
33481
33645
33916
33717
33393
32983
32354
31873
31245
30743
30396
30126
29910
29807
29739
29991
30237
30501
30809
31127
31510
31751
31862
31679
31568
31134
30548
29964
29384
28965
28620
28368
28276
28127
28375
28570
28800
29105
29415
29751
30276
30527
30593
30484
30289
29942
29377
28964
28428
27963
27655
27494
27382
27252
27296
27676
27855
28096
28498
28807
29286
29490
29508
29521
29181
29030
28533
27983
27479
27039
26758
26564
26381
26485
26591
26837
27087
27307
27759
28147
28510
28868
29131
29126
29122
28789
28412
27977
27464
27277
27068
26954
26857
26919
27039
27381
27711
28108
28588
28988
29537
29878
30091
30255
30199
29871
29772
29328
28877
28508
28270
28127
27963
28237
28388
28564
28877
29182
29728
30240
30629
30934
31168
31216
31206
30801
30352
29871
29478
29208
28938
28765
28607
28610
28733
29015
29257
29567
29995
30460
30962
31280
31415
31421
31329
31041
30667
30109
29830
29394
29028
28868
28703
28842
28916
29073
29316
29596
29996
30463
31030
31195
31364
31331
31353
30967
30514
29974
29423
29167
28835
28635
28460
28476
28614
28768
29191
29531
29918
30326
30772
31014
31359
31338
31094
30739
30331
29749
29303
28972
28801
28759
28828
28898
29128
29408
29761
30320
30749
31165
31639
32140
32295
32286
32229
31850
31630
31165
30814
30496
30462
30332
30295
30327
30598
30821
31316
31612
32060
32584
33057
33446
33924
33998
33902
33701
33368
32909
32577
32492
32233
32151
32211
32247
32679
33028
33363
33767
34154
34765
35254
35557
35796
36012
35758
35495
35223
34671
34311
34119
33881
33807
33938
33911
34158
34463
34875
35258
35903
36289
36468
36932
37154
37471
37282
36793
36511
36045
35846
35573
35168
35028
34978
34989
35308
35542
35812
36064
36700
37257
37624
37865
38007
38093
38114
37805
37087
36701
36250
35784
35552
35413
35255
35263
35388
35804
36090
36394
36646
37255
37652
38148
38401
38221
38135
37817
37487
37044
36387
36172
35940
35732
35804
35716
36007
36241
36751
36950
37419
37882
38354
38844
38839
38919
38754
38326
37906
37067
36325
35880
35533
35359
35111
35142
35607
36061
36412
37025
37741
38508
39381
39873
39750
39775
39239
38785
38093
38132
38957
40569
42086
44320
46532
48155
50407
52318
54012
55360
56576
57510
57847
58100
58501
58808
58817
58487
58085
57500
56804
56274
55758
55044
53981
52551
50885
49591
48181
46926
45385
43776
42572
41492
40320
39196
37743
36084
34420
32743
31484
30236
29216
28519
27974
27616
27582
27514
27523
27626
27812
28118
28227
28535
28471
28267
27891
27217
26804
26170
25579
25166
24862
24572
24420
24175
24344
24472
24668
24932
25258
25806
26241
26509
26548
26370
26043
25917
25500
25012
24534
24220
23808
23745
23663
23591
23716
23846
24300
24654
25093
25493
25914
26144
26484
26517
26286
25880
25548
25052
24567
24126
23667
23739
23718
23724
23727
24129
24460
24768
25151
25500
26002
26300
26463
26425
26420
26100
25664
25217
24713
24616
24385
24245
24179
24238
24268
24681
25028
25459
25850
26210
26842
27167
27468
27547
27349
27015
26753
26257
25786
25293
25303
25149
25064
25226
25495
25789
26066
26423
26757
27367
27748
28057
28185
28406
28231
27879
27505
27018
26743
26582
26360
26207
26127
26270
26348
26849
27169
27489
27951
28332
28933
29279
29442
29463
29280
29018
28673
28194
27760
27377
27138
26943
27057
27103
27290
27516
27852
28270
28606
29015
29605
29868
29963
29988
29837
29401
29094
28603
28132
27791
27503
27559
27447
27444
27508
27695
28014
28316
28901
29332
29680
30015
30134
30070
30019
29582
29033
28618
28269
27850
27506
27495
27436
27464
27569
27781
27993
28502
28916
29370
29729
29971
30238
30150
29909
29532
29102
28551
28037
27909
27620
27440
27428
27527
27671
27918
28262
28588
28935
29588
29937
30194
30309
30356
30228
29919
29545
29182
28871
28548
28330
28243
28220
28308
28522
28808
29194
29627
30100
30620
31264
31632
31820
31966
31822
31562
31343
30925
30546
30290
30085
30125
30285
30494
30699
31216
31633
32031
32454
32933
33501
33884
34020
34258
34203
33922
33484
32969
32484
32244
32082
31973
32158
32204
32374
32713
33028
33461
33924
34634
35060
35355
35383
35348
35206
34918
34586
34372
33987
33720
33577
33465
33617
33566
33681
33911
34103
34363
34767
35027
35186
35412
35480
35428
35228
35120
34645
34114
33732
33543
33383
33364
33336
33409
33549
33836
33991
34177
34334
34719
34948
35052
35146
35181
34959
34534
34210
33860
33534
33463
33266
33076
32951
33017
33116
33240
33558
33793
34012
34134
34446
34516
34729
34647
34362
33975
33639
33338
32971
32900
32633
32430
32349
32378
32519
32640
33031
33237
33529
33906
34106
34321
34136
34231
34103
34021
33589
33263
32991
32794
32751
32621
32515
32609
32701
32871
33227
33391
33543
33895
34159
34511
34561
34346
34206
34001
33937
33671
33386
33092
32929
32887
32791
32903
33174
33332
33477
33839
34139
34619
34876
34973
34980
34871
34803
34586
34239
34106
33719
33417
33274
33167
33199
33407
33572
33724
33913
34046
34420
34698
35089
35235
35295
35143
35108
34901
34676
34356
34008
33796
33639
33637
33711
33692
33704
33950
34177
34420
34696
34996
35451
35495
35515
35357
35290
35054
34931
34551
34291
34019
33839
33911
33772
33739
33948
34076
34473
34586
34812
35062
35498
35572
35527
35282
35225
35004
34567
34406
33996
33633
33439
33389
33348
33367
33655
33684
33807
33913
34237
34495
34692
35015
34978
34759
34647
34343
33948
33559
33351
33084
32932
32892
32773
32831
32971
33268
33295
33314
33639
33851
34279
34387
34375
34287
34108
33860
33541
33349
32966
32674
32507
32397
32391
32319
32422
32702
32899
32956
33316
33519
33703
34003
33953
33735
33583
33310
33132
32596
32427
32242
32300
32135
32002
32095
32190
32603
32775
32975
33215
33631
33813
33919
34041
33975
33967
33681
33303
33097
32844
32722
32543
32476
32435
32663
32743
32938
33119
33415
33657
34095
34316
34405
34431
34388
34319
34134
33938
33575
33285
33187
32999
33114
32998
32895
33060
33287
33541
33932
34171
34325
34663
34868
34983
34887
34810
34582
34180
33830
33567
33405
33171
33212
33059
33076
33279
33233
33500
33910
34107
34337
34581
34663
34703
34831
34636
34231
33839
33656
33363
33364
33106
32878
32839
32872
33045
33203
33270
33552
33804
34245
34295
34363
34455
34363
34173
34129
33781
33403
33129
32971
32775
32681
32590
32591
32784
32991
33252
33463
33679
34143
34330
34454
34442
34300
34278
33972
33799
33332
32910
32775
32679
32676
32641
32645
32634
32892
33082
33486
33681
33925
34017
34208
34277
34252
34207
33806
33450
33134
32859
32679
32554
32390
32260
32380
32516
32661
32812
32978
33355
33557
33963
34005
34006
34007
33921
33568
33156
32790
32570
32326
32371
32223
32124
32307
32381
32687
32806
32911
33310
33529
33932
33978
33967
33948
33869
33524
33258
33055
32751
32367
32302
32306
32207
32260
32504
32748
32949
33077
33437
33775
34040
34099
34131
34089
34081
33683
33524
33237
32845
32548
32526
32369
32500
32491
32519
32798
32968
33370
33611
33799
33869
34052
34118
34072
34006
33763
33319
32961
32596
32367
32291
32228
32226
32250
32255
32383
32606
32861
33137
33272
33311
33221
33204
33159
32936
32784
32476
32223
32308
32516
32818
33253
33572
33913
34423
34879
35156
35132
34981
35253
35844
36871
38396
39989
41760
43700
45332
46838
48002
49156
50324
51260
51876
52204
52527
52862
53352
53852
54441
54976
55335
55316
55716
55783
55325
54351
52644
51060
49412
47791
46180
44369
42548
40803
39681
38615
37610
36583
35471
34435
33647
32994
32428
31772
31124
30538
30073
29570
29077
28590
28237
28001
27951
27847
27844
27921
27997
28212
28394
28540
28728
28850
28954
28826
28616
28389
28140
27748
27505
27323
27225
27059
27015
27076
27197
27454
27654
27935
28167
28503
28797
29052
29147
29028
28905
28695
28442
28180
27863
27653
27576
27514
27572
27723
27828
27964
28199
28436
28731
29022
29254
29455
29533
29437
29272
29007
28802
28381
28215
28082
27970
27942
28031
28120
28198
28349
28582
28871
29171
29447
29823
30010
29982
29917
29711
29571
29349
29062
28794
28591
28506
28433
28446
28549
28735
28933
29176
29443
29672
29845
30090
30268
30434
30475
30404
30198
29930
29610
29292
28967
28794
28726
28734
28807
28858
28913
29162
29443
29796
30086
30308
30486
30541
30501
30399
30235
29841
29455
29191
28970
28848
28831
28796
28740
28876
29026
29351
29653
29897
30060
30311
30514
30654
30579
30357
30167
29938
29637
29279
29114
28999
28951
28966
28986
29060
29281
29511
29799
30123
30409
30606
30698
30711
30674
30484
30356
30082
29692
29498
29445
29380
29236
29159
29203
29370
29703
29986
30183
30349
30569
30716
30931
30967
31025
30995
30826
30425
30075
29853
29769
29676
29489
29498
29596
29840
29983
30087
30357
30805
31121
31257
31405
31462
31489
31194
30935
30663
30471
30321
30042
29922
29884
29949
30018
30065
30180
30405
30673
31027
31351
31446
31742
31748
31693
31505
31315
31097
30781
30487
30381
30355
30394
30372
30383
30596
30879
31300
31524
31823
32167
32519
32733
32685
32733
32759
32686
32457
32149
31927
31844
31966
31844
31908
32077
32328
32495
32701
32958
33333
33705
33790
33968
34097
34276
34247
33964
33697
33397
33178
33072
33004
32938
32923
32943
33112
33363
33671
33963
34231
34453
34558
34653
34758
34838
34742
34356
34009
33670
33556
33400
33244
33031
32998
33168
33331
33385
33521
33823
34150
34407
34490
34553
34599
34695
34585
34154
33828
33642
33351
33014
32908
32916
32935
32988
32970
33118
33409
33743
33887
34116
34407
34620
34590
34420
34230
33973
33767
33479
33171
32837
32646
32583
32599
32702
32933
33204
33505
33759
33964
34151
34350
34476
34649
34528
34284
34092
33903
33639
33243
32917
32762
32740
32761
32869
33019
33218
33375
33579
33923
34212
34511
34700
34702
34422
34223
34069
33807
33389
33074
32925
32839
32775
32621
32665
32765
32947
33233
33574
33831
34014
34178
34317
34470
34501
34324
33896
33583
33330
33087
32922
32715
32593
32636
32817
32997
33068
33245
33515
33814
34161
34385
34444
34407
34447
34373
34135
33767
33351
33128
33047
32927
32687
32807
32815
32890
33167
33431
33549
33942
34340
34403
34639
34759
34605
34465
34356
33878
33595
33397
33319
33171
33046
33188
33335
33342
33583
33961
34121
34386
34859
34951
34996
35101
35139
34935
34603
34202
33910
33715
33564
33409
33210
33175
33279
33506
33702
33919
34101
34251
34466
34714
34839
34861
34623
34452
34334
33843
33604
33385
32992
32849
32844
32868
32814
32925
33105
33449
33739
33892
34109
34373
34521
34503
34324
34173
34076
33798
33338
33031
32862
32710
32510
32519
32701
32933
33054
33206
33524
33900
34084
34186
34350
34493
34374
34077
33828
33556
33319
33066
32775
32628
32593
32639
32703
32837
32892
33082
33351
33644
33927
34090
34120
33995
33854
33613
33356
33132
32902
32628
32406
32333
32359
32425
32551
32695
32860
33063
33396
33799
34128
34271
34294
34308
34332
34191
33892
33404
32943
32607
32409
32325
32141
32063
32072
32196
32343
32550
32772
33077
33460
33748
33895
33843
33764
33677
33549
33217
32943
32727
32627
32631
32606
32573
32723
32956
33247
33454
33625
33924
34250
34503
34668
34583
34500
34439
34245
33822
33453
33240
33095
33012
32956
32988
33136
33430
33713
33980
34229
34501
34799
35170
35404
35463
35284
35116
34908
34701
34318
33933
33706
33605
33526
33470
33412
33383
33414
33498
33663
33889
34126
34223
34081
33930
33829
33663
33385
33009
32647
32335
32103
31938
31856
31844
31911
32036
32270
32617
32915
33159
33302
33446
33564
33579
33559
33396
33148
32775
32407
32111
31969
31917
31865
31846
31860
32044
32285
32565
32842
33141
33347
33508
33637
33733
33718
33451
33133
32836
32562
32332
32140
31959
31860
31899
32030
32239
32451
32730
33055
33350
33628
33837
33959
33878
33772
33575
33297
32999
32738
32498
32231
32022
31944
31906
31970
32151
32453
32753
33050
33349
33620
33831
33972
33927
33919
33826
33606
33247
32876
32635
32467
32327
32289
32300
32391
32579
32788
33086
33343
33620
33866
34171
34397
34369
34239
34047
33788
33357
32907
32508
32177
31982
31847
31785
31925
32324
32796
33361
34012
34611
35223
35910
36470
36903
37151
36986
36708
36238
35665
35278
35183
35708
36996
38644
40324
42049
43520
44800
45847
47084
48135
49124
49925
50436
50678
50740
50902
51047
51110
51085
50990
51271
51381
51394
51076
50375
49222
48413
47451
46392
45311
44300
43060
41492
39900
38592
37311
35801
34473
33350
32324
31403
30650
30206
29918
29763
29679
29604
29657
29793
29959
30006
29999
29887
29779
29481
29121
28715
28292
28054
27748
27531
27415
27453
27416
27617
27735
27962
28212
28468
28696
28948
29164
29148
29116
28836
28643
28363
27993
27835
27675
27555
27543
27540
27565
27686
27774
28052
28417
28740
29004
29166
29405
29390
29322
29115
28787
28546
28260
28120
27927
27842
27687
27655
27735
27884
28091
28430
28677
29000
29281
29492
29776
29796
29696
29575
29257
29007
28844
28623
28444
28377
28362
28314
28423
28596
28878
29199
29406
29740
29958
30188
30417
30387
30277
30136
30090
29828
29522
29223
29050
29004
28958
28960
29030
29110
29325
29612
29885
30246
30496
30725
30965
31027
30940
30684
30452
30207
29855
29572
29468
29319
29279
29415
29544
29653
29860
30146
30441
30740
31039
31274
31443
31521
31538
31368
31070
30791
30620
30324
30098
30000
29932
29962
30092
30267
30432
30764
30972
31279
31555
31746
31872
31925
31920
31792
31528
31183
30870
30581
30437
30367
30244
30223
30290
30345
30566
30955
31263
31547
31807
31973
32062
32031
31893
31572
31263
30936
30519
30193
29831
29690
29616
29703
29878
30030
30254
30429
30599
30881
31260
31389
31450
31304
31111
30827
30627
30423
30137
29871
29553
29414
29264
29230
29297
29506
29660
29857
30129
30338
30626
30870
31015
31092
31057
30790
30395
30005
29735
29356
29155
29037
28953
28904
29068
29327
29596
29975
30390
30719
30997
31239
31383
31462
31487
31488
31324
30977
30612
30286
30148
29980
30058
30127
30273
30515
30719
31043
31343
31767
32074
32303
32391
32514
32634
32562
32254
31922
31545
31361
31281
31190
31165
31265
31381
31567
31796
32094
32384
32730
33063
33355
33517
33580
33577
33470
33287
33020
32743
32482
32300
32180
32094
32139
32322
32647
32884
33164
33422
33703
33966
34310
34604
34719
34727
34592
34394
34125
33732
33414
33215
33132
33169
33233
33252
33381
33543
33772
34099
34469
34820
34983
35077
35062
34967
34809
34598
34337
34029
33812
33711
33655
33680
33727
33869
34055
34239
34462
34865
35256
35537
35751
35882
36008
35958
35704
35374
34973
34652
34434
34244
34071
33969
33895
33882
34095
34191
34267
34452
34741
35034
35158
35212
35176
34991
34711
34329
33959
33486
33069
32709
32479
32327
32254
32231
32274
32300
32327
32542
32765
33026
33116
33031
32924
32686
32463
32223
31709
31326
30917
30722
30585
30485
30388
30399
30551
30711
30887
31084
31375
31524
31751
31972
32023
31972
31656
31428
31111
30750
30504
30303
30167
30108
30129
30215
30276
30586
30876
31124
31545
31781
31997
32057
32100
32008
31837
31653
31294
31103
30908
30781
30824
30727
30864
31007
31271
31484
31751
32057
32420
32762
33057
33255
33316
33349
33219
33046
32712
32537
32353
32196
32183
32135
32183
32370
32695
33072
33332
33598
33980
34293
34516
34803
34821
34906
34871
34743
34497
34130
33997
33960
33823
33691
33863
34078
34293
34634
34944
35325
35715
36036
36292
36487
36558
36532
36306
36042
35718
35406
35141
34918
34757
34734
34756
34895
35034
35150
35572
35778
36047
36319
36569
36682
36639
36463
36156
35804
35362
34942
34564
34380
34253
34071
34035
34071
34175
34250
34460
34775
35085
35289
35374
35371
35204
34947
34534
34055
33533
33062
32713
32325
32165
31983
31940
31932
31941
32204
32402
32515
32775
32837
32970
33108
33056
32817
32572
32247
31741
31407
31084
30830
30683
30637
30589
30565
30655
30671
30981
31228
31529
31724
31854
31960
32047
31940
31725
31505
31186
30950
30679
30608
30614
30568
30596
30657
30916
31115
31437
31784
32149
32452
32701
32925
33028
33028
32829
32687
32460
32250
32069
31909
31778
31893
32039
32175
32293
32324
32644
33136
33511
33669
33923
33963
34022
34004
33846
33765
33460
33085
32890
32727
32590
32606
32571
32775
32892
33177
33415
33692
34007
34391
34564
34669
34593
34514
34342
34024
33675
33293
33052
32923
32743
32738
32732
32838
32971
33244
33472
33727
34087
34280
34508
34694
34842
34778
34578
34271
33894
33597
33452
33364
33340
33418
33492
33701
33927
34161
34452
34734
35079
35516
35785
35955
35935
35776
35555
35313
34981
34556
34213
34012
33927
33847
33837
33876
33984
34183
34445
34697
35021
35229
35403
35505
35452
35412
35052
34611
34081
33599
33158
32918
32761
32461
32478
32423
32454
32607
32621
32875
32957
33015
33037
32900
32613
32242
31662
31284
30713
30241
29890
29715
29885
30037
30430
30832
31412
32122
32710
33412
34117
34566
34874
34918
34669
34474
34489
34971
35919
37287
38747
40250
41671
42855
43833
44732
45928
46980
47924
48908
49457
50087
50758
51374
51781
52180
52345
52583
52612
52388
51762
50649
49251
47886
46598
45413
44295
43091
41836
40517
39238
38164
37146
36217
35236
34117
33070
32140
31239
30468
29813
29198
28805
28552
28388
28374
28387
28619
28813
29019
29237
29508
29610
29639
29621
29430
29182
29013
28684
28397
28077
27826
27655
27583
27621
27867
28236
28524
28754
29044
29287
29754
30042
30081
30095
29911
29629
29532
29260
29012
28710
28490
28297
28491
28633
28731
28842
29026
29231
29470
29845
30245
30479
30563
30524
30442
30139
29814
29412
28980
28669
28397
28186
28066
28108
28195
28399
28679
28979
29157
29500
29740
29870
30110
30134
30023
29754
29391
29036
28741
28565
28373
28266
28198
28298
28372
28519
28691
28945
29318
29697
30132
30377
30557
30554
30466
30260
30015
29645
29263
29012
28876
28868
28876
28990
29063
29320
29477
29685
30054
30327
30526
30696
30709
30718
30807
30636
30283
29884
29544
29252
29181
29121
29070
28966
29065
29095
29447
29711
29870
30180
30357
30530
30759
30736
30469
30134
29760
29518
29118
28811
28535
28399
28325
28268
28358
28687
28986
29299
29578
29815
30082
30281
30535
30626
30565
30395
30105
29734
29498
29310
29221
29188
29149
29134
29275
29640
29845
30112
30465
30998
31343
31580
31762
31780
31774
31646
31377
31012
30758
30432
30317
30420
30406
30396
30495
30727
30931
31153
31428
31633
31774
32012
32245
32150
31920
31654
31503
31300
31081
30732
30556
30412
30236
30365
30407
30549
30708
30845
31167
31463
31668
31808
31861
31823
31780
31610
31308
30900
30650
30303
30116
30145
30087
30154
30238
30420
30804
31069
31379
31735
32033
32436
32718
32846
32828
32646
32550
32200
31994
31983
31950
31981
32005
32091
32193
32511
32748
33110
33476
33789
34125
34311
34472
34492
34461
34254
34004
33770
33422
33197
33084
32878
32853
32903
32958
33225
33366
33620
33745
34021
34298
34386
34411
34319
34156
33855
33489
33073
32733
32502
32139
32012
31919
31846
31847
31908
32070
32302
32609
32820
33078
33351
33316
33406
33282
33055
32693
32340
32013
31878
31665
31533
31444
31662
31801
31922
32212
32375
32692
33094
33415
33718
33873
33913
33868
33736
33413
33004
32804
32548
32487
32359
32383
32447
32528
32747
32812
33111
33313
33621
33940
34099
34157
34121
33931
33641
33242
32911
32548
32252
31980
31751
31671
31602
31679
31750
31948
32095
32319
32454
32719
32902
33025
33030
32908
32643
32328
31972
31662
31385
31311
31229
31122
31053
31159
31264
31503
31817
32199
32591
32894
33129
33276
33333
33258
33055
32686
32328
32070
31860
31714
31740
31682
31850
31958
32206
32359
32784
33172
33516
33794
33887
34003
33900
33788
33572
33339
33002
32679
32412
32236
32068
31965
32037
32207
32313
32599
32868
33204
33428
33570
33765
33882
33765
33629
33348
33015
32730
32317
32180
32066
31874
31857
31877
31858
32150
32449
32742
33144
33439
33763
33956
34090
34020
33951
33733
33487
33077
32823
32699
32532
32462
32517
32569
32703
32843
33188
33441
33767
34081
34300
34567
34668
34628
34407
34301
34223
33855
33673
33471
33234
33182
33195
33264
33361
33461
33649
33900
34208
34378
34655
34724
34749
34630
34522
34224
33771
33344
32996
32709
32511
32325
32284
32212
32353
32464
32636
32876
33115
33447
33668
33795
33923
33882
33788
33535
33245
32801
32528
32339
32172
32092
32066
32084
32124
32402
32610
32853
33239
33501
33799
34079
34268
34208
34236
34020
33679
33372
33057
32797
32741
32676
32742
32719
32824
33038
33159
33500
33876
34118
34489
34655
34535
34503
34299
34034
33833
33500
33184
32860
32642
32573
32484
32494
32628
32855
32997
33237
33475
33727
33996
34036
34223
34161
33974
33739
33332
32839
32443
32258
32119
32027
32039
32151
32261
32481
32710
33010
33343
33514
33857
34076
34092
34231
33961
33843
33606
33252
33036
32847
32708
32675
32700
32823
33010
33206
33446
33799
34238
34422
34720
34912
34791
34876
34619
34490
34276
33857
33672
33522
33396
33321
33126
33145
33197
33172
33402
33678
33719
33983
34172
34126
34206
34079
33799
33516
33163
32716
32367
32113
31908
31679
31647
31759
31822
31895
32129
32286
32541
32807
33089
33157
33281
33249
32961
32724
32384
32183
31879
31788
31640
31615
31636
31696
31774
32090
32304
32669
33047
33434
33569
33789
33924
33951
33854
33670
33367
33153
32926
32746
32631
32632
32519
32487
32637
32791
33108
33365
33543
33738
33862
33856
33751
33619
33448
33174
32933
32627
32540
32530
32586
32877
33383
33771
34244
34903
35398
35865
36207
36322
36225
36247
36481
37270
38534
40061
41574
43036
44493
45779
46743
47580
48603
49510
50261
50695
51342
51823
52447
52999
53591
54118
54457
54629
54591
54336
53757
52663
51349
49719
48252
46903
45483
44229
42818
41359
40123
39103
38116
37066
36196
35460
34697
33831
32940
32215
31495
30742
30094
29603
29247
28806
28630
28466
28519
28537
28576
28669
28780
28988
28983
28919
28951
28917
28644
28325
27926
27535
27322
27150
26929
26742
26599
26540
26690
27025
27252
27580
27847
28077
28378
28450
28503
28592
28548
28327
28000
27701
27547
27438
27353
27372
27466
27548
27692
27907
28268
28708
29164
29516
29865
30188
30293
30237
29955
29791
29606
29327
29047
28870
28839
28845
28973
29127
29180
29498
29663
30015
30335
30660
30862
31092
31063
30883
30676
30446
30153
29873
29593
29426
29242
29156
29158
29172
29298
29477
29796
30105
30335
30599
30847
30979
31060
31097
30878
30596
30327
29959
29666
29492
29481
29429
29519
29574
29671
29906
30157
30458
30839
31087
31396
31697
31734
31651
31477
31347
31135
30823
30632
30436
30332
30374
30335
30484
30591
30815
31117
31322
31525
31698
31904
32062
32039
31924
31559
31308
31067
30638
30292
29927
29811
29764
29583
29603
29564
29643
29892
30167
30426
30666
30759
30839
30873
30787
30486
30103
29754
29350
29039
28853
28776
28743
28618
28599
28645
28763
28996
29309
29537
29893
30182
30327
30388
30286
30175
30014
29669
29440
29223
29074
29011
29058
29166
29244
29425
29670
29917
30214
30549
30954
31341
31508
31501
31404
31357
31239
30884
30591
30313
30239
30438
30481
30452
30647
30861
31047
31286
31479
31831
32226
32406
32509
32519
32466
32347
32151
31812
31488
31284
31053
30992
31119
31210
31408
31577
31887
32221
32531
32887
33170
33393
33572
33673
33660
33533
33310
33004
32706
32509
32333
32176
32235
32359
32519
32729
33019
33348
33678
34054
34436
34706
34844
34906
34876
34767
34534
34252
34001
33796
33676
33607
33578
33623
33809
34123
34361
34618
34957
35351
35668
35839
35958
35981
35948
35815
35572
35202
34812
34558
34273
34163
34079
34038
34140
34181
34239
34364
34601
34868
35100
35263
35325
35335
35207
34987
34676
34167
33719
33391
33172
32986
32911
32887
32884
32960
33146
33426
33663
33935
34150
34335
34420
34439
34319
34063
33839
33416
33115
32935
32850
32724
32630
32668
32844
33118
33440
33751
34077
34311
34556
34791
34975
35079
35180
35036
34741
34362
33951
33687
33438
33268
33166
33157
33175
33252
33346
33561
33831
34156
34425
34591
34639
34582
34431
34197
33930
33543
33140
32756
32415
32255
32126
32071
32076
32150
32255
32485
32731
32964
33265
33386
33514
33607
33493
33200
32938
32579
32263
31968
31748
31661
31652
31725
31734
31861
32077
32308
32545
32842
33223
33485
33728
33799
33703
33449
33263
32965
32716
32455
32207
32071
32049
32104
32225
32450
32660
32803
32973
33191
33474
33734
33911
33775
33679
33576
33434
33260
33021
32831
32615
32545
32426
32373
32407
32530
32631
32788
33218
33537
33691
33869
33990
33985
33927
33742
33421
33316
33034
32706
32598
32427
32207
32079
32023
32330
32824
33100
33230
33516
33870
34180
34446
34559
34524
34247
34013
33806
33485
33142
32941
32812
32775
32848
32921
33061
33199
33390
33591
33901
34278
34540
34743
34797
34648
34391
34044
33732
33451
33239
33005
32756
32611
32527
32543
32764
32857
32769
32894
33216
33502
33799
33952
34001
33965
33777
33639
33403
33107
32676
32380
32167
32098
32073
32170
32351
32396
32571
32716
32895
33182
33438
33543
33700
33650
33437
33166
32917
32689
32415
32117
31962
31988
32017
32077
32287
32574
32821
33046
33271
33577
33844
34017
34156
34145
33940
33568
33203
32893
32675
32548
32444
32451
32397
32403
32503
32655
32910
33249
33582
33830
33949
34076
34159
34164
34049
33799
33474
33065
32647
32503
32508
32508
32555
32575
32683
32817
32994
33204
33411
33598
33844
34055
34090
33966
33838
33685
33431
33071
32612
32316
32214
32142
32224
32332
32426
32695
32964
33180
33592
33949
34268
34476
34412
34353
34291
34144
33748
33389
33199
33055
32980
32945
32871
32858
33050
33287
33692
34014
34226
34515
34756
35053
35228
35220
34969
34575
34236
33951
33658
33557
33465
33377
33175
33223
33364
33599
33846
34104
34401
34649
34762
34919
34957
35006
34901
34533
33944
33519
33249
33079
33037
32898
32713
32754
33005
33191
33303
33463
33790
34079
34256
34432
34444
34230
33775
33399
32995
32711
32494
32405
32431
32558
32924
33383
33876
34460
35150
35844
36440
36766
36912
36815
36760
37020
37709
39082
40735
42660
44384
45998
47554
48884
50308
51528
52534
53312
53796
53943
54389
54984
55559
55837
55956
55927
55623
55358
54975
54398
53476
52032
50245
48948
47461
46205
44762
43078
41846
40836
39801
38796
37612
36634
35564
34367
33194
32255
31502
30628
30075
29574
29156
28847
28708
28626
28604
28676
28797
28956
29076
29314
29539
29620
29721
29647
29326
29100
28811
28588
28371
28244
28144
28075
28009
28058
28269
28554
28855
29047
29393
29728
30045
30261
30314
30180
29919
29700
29285
29071
28895
28660
28499
28350
28380
28384
28459
28679
28935
29210
29606
29825
30008
30159
30191
30137
29994
29764
29279
28947
28676
28484
28292
28164
28107
28215
28364
28602
28852
28983
29262
29599
29870
29900
29863
29754
29516
29325
29045
28708
28353
28065
27971
27917
27959
27983
28148
28326
28479
28655
28783
28975
29222
29399
29545
29564
29439
29231
28837
28502
28285
28039
27795
27737
27782
27847
28063
28255
28471
28698
28831
29094
29246
29407
29447
29436
29340
28929
28445
28148
27908
27707
27545
27474
27470
27506
27756
27947
28184
28509
28848
29103
29343
29660
29797
29791
29512
29252
28861
28654
28276
28109
28026
28034
28063
28096
28135
28326
28509
28770
29020
29258
29405
29543
29575
29582
29403
29191
28893
28588
28311
28146
28073
28038
28121
28187
28309
28497
28777
29153
29445
29600
29761
29910
29938
29994
29866
29647
29316
29039
28789
28695
28445
28324
28294
28421
28604
28753
28963
29295
29566
29830
30082
30239
30409
30391
30225
29991
29716
29521
29309
29049
28940
28852
28958
29061
29220
29374
29541
29895
30335
30637
30807
30895
30935
30873
30695
30518
30231
29968
29735
29708
29684
29604
29624
29874
30085
30328
30667
30987
31304
31774
32103
32268
32524
32493
32323
32075
31905
31687
31525
31361
31255
31269
31351
31452
31724
31975
32247
32521
32822
33063
33210
33263
33342
33230
32980
32893
32633
32431
32108
31799
31691
31662
31765
31857
31921
32131
32301
32526
32830
33157
33287
33501
33361
33216
33068
32741
32510
32168
31838
31685
31525
31435
31359
31586
31827
31947
32147
32391
32582
32920
33174
33405
33525
33442
33442
33181
32844
32470
32219
32030
31916
31828
31884
31917
32164
32458
32679
32970
33300
33743
33877
33872
33887
33968
33876
33607
33540
33168
32891
32673
32541
32476
32390
32429
32697
32990
33204
33359
33639
33924
34215
34332
34324
34260
34020
33773
33528
33241
32996
32722
32695
32569
32501
32605
32644
32876
33165
33519
33756
34225
34295
34244
34174
34050
33908
33622
33359
32942
32871
32631
32414
32261
32157
32310
32517
32756
32919
33174
33447
33758
33992
34191
34165
34009
33719
33435
33076
32884
32732
32494
32258
32279
32255
32255
32416
32631
32951
33287
33459
33687
33900
34062
34104
34186
33927
33583
33207
32904
32667
32404
32275
32116
32085
32108
32326
32532
32695
33050
33269
33510
33680
33652
33704
33573
33535
33180
32749
32519
32239
32015
32045
31918
31901
31860
31924
32184
32371
32657
32898
33135
33347
33607
33732
33665
33527
33311
33153
32796
32469
32303
32158
32153
32145
32221
32420
32858
33093
33386
33646
33832
34150
34281
34324
34439
34149
33839
33489
33127
32960
32620
32439
32461
32586
32532
32598
32709
33031
33389
33617
33926
34303
34384
34296
34092
34037
33807
33422
32999
32865
32582
32391
32291
32188
32287
32478
32738
32898
33261
33511
33717
33927
33995
34007
33954
33750
33413
33188
32775
32392
32121
32104
32086
32018
32213
32340
32439
32524
32820
33246
33517
33887
34167
34176
34105
33862
33733
33404
33095
32868
32769
32722
32620
32561
32545
32663
33028
33285
33396
33703
34085
34215
34382
34458
34257
33994
33652
33287
32998
32702
32470
32561
32517
32492
32505
32686
32892
33126
33511
33831
34065
34233
34289
34286
34166
33891
33592
33178
32925
32700
32465
32518
32295
32131
32168
32190
32404
32686
33053
33372
33494
33596
33751
33735
33626
33423
33183
32874
32688
32356
32125
32007
32017
31990
32228
32288
32405
32663
32927
33240
33497
33969
34091
34108
34069
33737
33587
33078
32924
32700
32647
32471
32324
32321
32351
32346
32631
32894
33206
33198
33429
33791
33943
34025
34092
33926
33608
33219
32881
32625
32588
32384
32207
32271
32383
32518
32741
33044
33238
33430
33536
33767
33936
33932
34104
33842
33538
33134
32696
32408
32153
32051
32103
32055
32018
31948
32034
32153
32301
32615
32743
32923
33067
33119
33188
33428
33703
33732
33973
34100
34337
34436
34485
34373
34186
34283
34916
36279
38195
40800
43484
45940
48374
50440
52164
53372
54698
55335
55744
55959
55749
55460
55584
55804
55880
55999
56028
55975
55884
56071
56117
55769
54639
53372
51820
50183
48464
46663
44604
42614
40842
39084
37870
36527
35199
33957
32908
31983
31280
30868
30557
30298
30083
30081
29825
29447
29068
28631
28125
27739
27340
27116
26917
27009
27004
27056
27141
27274
27441
27706
27932
28165
28375
28415
28258
28160
27863
27527
27182
26990
26866
26660
26722
26745
26839
27012
27216
27435
27560
28000
28257
28368
28454
28404
28521
28309
28028
27596
27522
27248
27126
26947
27151
27236
27277
27338
27438
27695
27969
28487
28773
28949
29020
29055
28942
28919
28732
28462
28161
27911
27633
27743
27750
27789
27869
28007
28281
28596
28793
28964
29225
29476
29667
29803
29727
29578
29364
28978
28884
28630
28396
28229
28049
28287
28357
28458
28571
28903
29148
29420
29624
29897
29975
29999
29854
29658
29596
29235
28925
28700
28502
28422
28377
28423
28486
28633
28716
28959
29188
29510
29921
30104
30295
30364
30284
29996
29671
29545
29297
29068
28844
28678
28610
28512
28771
28909
29087
29273
29498
29877
30074
30230
30375
30338
30503
30324
30081
29779
29423
29109
28931
28906
28836
29016
29090
29215
29367
29511
29903
30149
30372
30506
30660
30580
30396
30362
30089
29834
29581
29230
29050
28964
28951
28925
29006
29079
29374
29532
29766
29959
30124
30465
30648
30727
30679
30546
30346
30091
29692
29404
29158
29136
29244
29317
29402
29566
29714
29871
30073
30350
30657
30892
31043
31085
31115
31039
30828
30538
30188
29999
29787
29867
29806
29812
29885
30096
30311
30588
30975
31390
31895
32179
32343
32399
32455
32412
32193
32095
31822
31642
31566
31439
31582
31613
31710
31916
32167
32450
32975
33429
33727
33995
34218
34316
34327
34138
33845
33459
33140
33080
32852
32621
32535
32548
32810
32901
33085
33335
33636
34218
34410
34577
34815
34834
34967
34665
34244
33866
33404
33195
32989
32854
32803
32835
32780
32837
33140
33255
33462
33829
34237
34460
34610
34720
34717
34456
34320
33844
33361
33093
32938
32717
32752
32647
32647
32746
33018
33301
33732
34110
34356
34620
34812
34905
34856
34631
34300
33767
33228
33066
32804
32549
32384
32298
32246
32465
32770
33072
33439
33813
34116
34373
34594
34602
34575
34394
34096
33550
33079
32930
32644
32468
32359
32092
32244
32564
32868
33157
33434
33640
33916
34167
34502
34509
34398
34179
33836
33462
33052
32791
32471
32324
32468
32438
32489
32694
32892
33100
33526
33871
34180
34351
34494
34537
34602
34454
34078
33620
33222
32809
32588
32324
32136
32317
32358
32506
32644
32939
33260
33595
33837
34050
34229
34455
34275
33900
33511
33117
32793
32433
32145
32060
31945
31919
31989
32001
32148
32390
32676
33249
33588
33831
34020
34066
34204
33796
33467
32982
32487
32263
31973
31722
31583
31623
31655
31820
32225
32429
32725
32999
33248
33543
33655
33668
33639
33498
33265
32882
32462
32189
31948
31668
31732
31717
31751
31922
32130
32430
32767
33294
33482
33718
33914
33997
33894
33780
33519
33039
32636
32280
31909
31682
31797
31782
31732
31751
32026
32303
32444
32829
33242
33574
33751
33895
33735
33679
33261
32775
32465
32165
31810
31776
31672
31671
31879
31990
32109
32349
32792
33158
33434
33636
33782
33870
33789
33712
33369
32982
32483
32158
31895
31794
31687
31606
31543
31724
31988
32324
32606
33167
33502
33658
33892
33972
33944
33645
33481
32964
32472
32054
31961
31767
31582
31600
31665
31973
32142
32327
32631
33207
33559
33669
33849
33860
33772
33431
33080
32820
32324
31901
31612
31500
31518
31729
31813
31995
32343
32519
32828
33252
33692
34055
34246
34381
34299
33919
33650
33255
32994
32551
32154
31926
31751
31922
31970
32020
32204
32526
32892
33484
33785
33909
34162
34175
34205
33976
33597
33156
32659
32546
32257
31950
31787
31940
31990
32127
32312
32575
32791
33344
33640
33894
34128
34140
34178
33848
33458
33012
32714
32366
32004
31846
31703
31658
31668
31845
32166
32364
32639
33094
33445
33900
33988
34029
34007
33921
33518
32962
32485
32207
31769
31575
31385
31535
31617
31719
31863
32153
32607
32946
33173
33396
33603
33592
33612
33277
32994
32786
32382
32020
31708
31503
31398
31254
31462
31573
31767
32025
32340
32687
33142
33261
33551
33567
33685
33365
32950
32532
32141
31942
31638
31391
31367
31308
31573
31761
31975
32258
32431
32956
33186
33471
33759
33791
33903
33581
33182
32650
32206
31596
31187
30834
30905
30901
30900
31155
31460
32184
32794
33510
34360
35101
35902
36239
36333
36131
35860
35238
34766
34835
35845
37444
39654
42204
44620
46612
49126
51325
53311
55077
56407
57333
57732
57789
57751
57777
57724
57319
56836
56253
55525
55134
54932
54630
53926
52903
51816
50630
49436
48254
47085
45628
44173
42460
41340
39940
38209
36575
34628
32833
31480
30406
29386
28884
28531
28407
28362
28365
28469
28514
28949
29146
29247
29201
29045
28655
28270
27926
27349
26852
26214
26092
25942
25818
25781
26073
26260
26476
26724
27198
27564
27884
28087
28144
28036
27668
27502
27116
26695
26436
26036
26009
25897
25834
25872
26130
26437
26694
26991
27564
27978
28302
28451
28412
28477
28278
27921
27559
27218
26935
26724
26479
26550
26601
26673
26823
27012
27441
27788
28172
28488
28801
29180
29220
29103
28925
28551
28341
27935
27629
27334
27087
26886
27111
27227
27352
27512
27976
28348
28769
29069
29479
29719
29765
29676
29356
29167
28768
28322
28012
27697
27690
27598
27536
27559
27821
28119
28324
28679
28965
29486
29762
29869
29958
29890
29863
29439
28917
28499
28286
28085
27925
27834
27763
28012
28236
28494
28708
29170
29471
29932
30180
30411
30382
30438
30203
29834
29447
29039
28634
28317
28209
28078
28257
28340
28495
28802
29173
29419
29673
29924
30263
30373
30449
30574
30332
29943
29525
29022
28813
28562
28282
28125
28172
28243
28386
28551
28727
29172
29500
29767
30060
30173
30398
30286
29976
29618
29342
28921
28525
28120
28084
27951
28001
27940
28280
28393
28685
29137
29500
29858
30155
30505
30453
30335
30220
29854
29391
28948
28775
28498
28310
28398
28448
28511
28732
28943
29511
29769
30182
30454
30945
31145
31356
31368
31002
30567
30176
29796
29501
29502
29476
29505
29582
29928
30179
30410
30769
31371
31836
32164
32513
32982
33079
32912
32801
32592
32485
32109
31749
31602
31367
31549
31551
31638
31944
32188
32722
33060
33420
33725
34197
34232
34374
34529
34284
33930
33538
33277
32892
32598
32469
32335
32505
32498
32750
33023
33479
33692
34137
34620
34822
34947
34954
35019
34727
34325
33935
33474
33122
33062
32884
32703
32728
32833
33015
33231
33687
34013
34311
34518
34751
34823
34844
34987
34732
34345
33892
33506
33151
33031
32788
32615
32563
32654
32909
33113
33335
33638
34135
34366
34532
34690
34748
34575
34319
34167
33687
33209
32696
32412
32263
32055
32169
32205
32364
32636
32929
33269
33869
34203
34356
34564
34636
34558
34383
33983
33428
32994
32673
32401
32392
32263
32234
32283
32471
32637
32938
33169
33649
34214
34513
34636
34502
34439
34092
33948
33501
32976
32607
32328
32126
31998
32209
32223
32372
32702
32951
33463
33820
34140
34367
34421
34380
34331
34063
33647
33188
32908
32545
32199
31999
31946
32007
32087
32279
32518
32743
33208
33465
33646
33984
34114
34275
34167
33728
33388
33004
32530
32338
32044
31802
31781
31820
31998
32118
32247
32538
32937
33287
33765
33948
34134
34172
34215
33855
33645
33072
32567
32182
32102
31873
31692
31686
31759
31919
32324
32644
32944
33324
33753
34036
34376
34436
34285
33850
33552
33064
32566
32183
32095
31837
31672
31681
31652
31848
32288
32591
32870
33262
33543
33904
33948
33946
33804
33654
33276
32862
32486
32075
31814
31716
31576
31703
31713
31996
32148
32407
32791
33064
33534
33960
34025
34183
34208
33867
33423
33108
32703
32577
32293
32197
32153
32087
32350
32502
32669
32744
32794
33145
33374
33791
33798
33791
33671
33455
33361
33045
32687
32433
32367
32021
31855
31939
31951
32324
32378
32663
33077
33271
33505
33549
33726
33659
33668
33348
33205
32693
32356
32227
31984
31946
31700
31860
31767
31861
32128
32222
32357
32733
32916
33258
33231
33287
33146
33074
32671
32404
32191
31937
31700
31548
31495
31662
31726
31820
32020
32291
32551
32760
33030
33206
33503
33485
33341
33228
32980
32811
32581
32353
32151
32075
31962
32169
32196
32167
32314
32575
32775
32984
33367
33650
33677
33822
33687
33567
33361
33023
32819
32480
32218
32128
31994
32140
32236
32538
32615
32747
33123
33241
33421
33686
33636
33495
33421
33215
32847
32677
32338
32073
31837
31724
31732
31663
31935
32001
32086
32255
32410
32683
32865
33222
33326
33222
33159
32946
32891
32558
32249
31972
31787
31593
31653
31628
31733
31914
32185
32481
32684
32951
33335
33325
33447
33610
33318
33071
32812
32465
32213
31927
31942
31786
31758
31844
31951
32087
32213
32506
32694
33148
33311
33453
33564
33535
33583
33254
33023
32623
32486
32126
31808
31768
31685
31892
31932
32039
32217
32465
32667
32929
33226
33325
33438
33402
33494
33236
32927
32649
32456
32103
32088
31945
31859
31807
31844
32056
32216
32443
32838
33029
33063
33150
33188
33092
33126
32823
32362
32065
31964
32017
32413
32748
32942
33421
33991
34434
34870
35227
35063
35169
35496
36011
37566
39136
41438
43956
46191
47996
49588
51044
52380
53706
54684
55316
55548
55527
55778
56133
56572
56719
56889
56839
56677
56517
56268
55750
54568
53278
51687
50000
48294
46548
44796
43264
41554
40125
38969
37990
36880
36004
34801
33654
32756
31900
31225
30468
29794
29152
28604
28089
27572
27527
27358
27209
26992
27136
27183
27220
27316
27618
27812
27935
27961
27821
27852
27588
27253
26853
26607
26213
26236
26177
26130
26239
26234
26628
26759
26914
27199
27404
27695
27980
28117
28122
28039
27814
27598
27247
27172
27012
26796
26614
26684
26710
26809
26924
27164
27404
27655
28110
28341
28506
28703
28805
28738
28490
28270
27845
27724
27480
27262
27188
27185
27297
27356
27504
27634
27895
28316
28625
28890
29011
29289
29371
29324
29089
28802
28639
28279
28020
27791
27796
27844
27816
27927
28044
28521
28679
28901
29162
29540
29711
29828
29795
29636
29351
29260
28919
28563
28248
28212
28102
27992
27998
28091
28139
28344
28782
28980
29207
29428
29671
29747
29902
29842
29617
29263
28900
28645
28397
28350
28312
28268
28231
28332
28391
28708
28958
29162
29386
29647
29754
29736
29890
29812
29625
29314
29012
28797
28566
28384
28508
28431
28404
28417
28538
28654
29063
29253
29478
29669
29847
29916
29854
29746
29562
29332
29206
28930
28620
28473
28375
28313
28343
28340
28433
28744
28967
29173
29380
29571
29796
29919
29940
29919
29635
29439
29065
28743
28530
28406
28356
28266
28289
28423
28629
28814
28908
29395
29730
29972
30232
30342
30558
30481
30228
29978
29606
29503
29255
29069
29026
28998
29308
29407
29489
29699
29861
30373
30743
31074
31477
31661
31716
31751
31555
31527
31147
30849
30785
30756
30903
30959
31079
31188
31298
31663
31910
32277
32815
32975
33237
33350
33636
33606
33330
33116
32875
32820
32661
32453
32358
32383
32396
32723
32877
33007
33250
33638
33871
34017
34271
34383
34457
34413
34041
33921
33470
33212
32972
33040
32917
32804
32749
32727
33012
33124
33190
33480
33792
34004
34395
34475
34345
34353
33968
33692
33287
33017
32810
32738
32673
32526
32500
32567
32801
32904
33082
33466
33875
34023
34043
34081
34076
34113
33758
33519
33159
32996
32618
32332
32174
32324
32295
32341
32492
32629
33079
33335
33519
33708
33841
33830
34005
33799
33687
33378
33135
32660
32506
32373
32453
32316
32401
32452
32710
32771
32984
33257
33682
33838
33968
34221
34012
33924
33700
33677
33284
32934
32676
32670
32474
32428
32488
32804
32889
33015
33255
33598
33924
33985
34202
34263
34277
34231
33957
33862
33486
33100
32781
32643
32503
32461
32431
32684
32827
32996
33122
33335
33649
33943
34079
34362
34255
34205
34072
33700
33565
33172
32798
32597
32454
32550
32552
32617
32839
32975
33383
33519
33870
34129
34343
34471
34322
34132
33996
33639
33135
32719
32384
32151
32311
32225
32222
32447
32634
32988
33196
33399
33709
33828
34116
34145
34090
33950
33703
33327
32949
32788
32532
32383
32326
32214
32380
32391
32508
32692
33040
33242
33597
33644
33825
33967
33862
33940
33516
33261
32911
32541
32486
32279
32157
32119
32119
32196
32347
32694
32838
33076
33398
33573
33887
33967
33892
33702
33569
33351
32967
32814
32556
32385
32296
32257
32252
32306
32670
32849
32928
33153
33511
33769
34007
34072
33968
33870
33724
33391
32927
32612
32389
32164
32088
32082
32100
32423
32470
32583
32886
33212
33677
33926
34053
34034
34087
33979
33836
33423
33079
32876
32678
32529
32460
32390
32375
32450
32623
32895
33066
33354
33752
33884
34035
34087
34129
33957
33913
33554
33103
32695
32500
32295
32367
32372
32383
32428
32583
32775
32982
33249
33476
33867
34207
34206
34108
33985
33772
33450
32999
32554
32338
32396
32231
32113
32133
32172
32461
32575
32772
33031
33276
33695
33895
33940
33858
33725
33543
33223
33025
32708
32456
32244
32137
32103
32174
32240
32670
32877
33012
33262
33510
33772
34179
34343
34311
34074
33895
33518
33208
32730
32373
32104
31930
31834
31815
31964
32175
32420
32744
33287
33662
34028
34273
34372
34383
34198
34103
33711
33174
32704
32391
32092
32062
31980
32015
32028
32162
32392
32717
33005
33329
33649
33981
33963
34049
33974
33678
33479
33095
32749
32418
32173
32021
31927
32126
32135
32294
32594
32860
33202
33508
33943
34071
34055
34098
33948
33692
33300
33092
32658
32341
32256
32070
32163
32148
32216
32303
32458
32701
33052
33364
33468
33732
33862
33971
33702
33444
33106
32750
32612
32397
32150
32042
31982
31957
32222
32295
32394
32666
32927
33330
33535
33598
33767
33711
33575
33493
33115
32756
32487
32303
32133
32218
32104
32077
32217
32372
32476
32874
33143
33462
33730
33892
33872
33948
33651
33284
32893
32387
31876
31844
31605
31514
31487
31589
32103
32452
33108
33700
34565
35173
35591
36068
36159
36164
35730
35335
35524
36412
37780
39586
42084
44314
46284
48277
50020
51631
53079
54296
55156
55664
55783
55925
56188
56485
56448
55855
55799
55271
54822
54596
54151
53396
52271
50975
49670
48450
47183
45594
44191
42676
41580
40406
39431
38081
36454
34935
33572
32174
31113
30180
29447
28855
28471
28353
28123
28295
28322
28324
28289
28415
28541
28519
28605
28514
28364
28101
27751
27326
27236
26993
26788
26574
26456
26315
26518
26709
26940
27158
27452
27618
27772
28189
28279
28310
28217
27979
27703
27364
26989
26863
26906
26831
26791
26850
26947
27162
27234
27619
27902
28194
28432
28645
28785
28711
28608
28599
28417
28087
27845
27636
27438
27307
27292
27287
27364
27662
27732
27901
28199
28369
28860
29055
29166
29142
29048
28828
28662
28415
28199
28068
28028
27852
28017
28005
28138
28351
28590
28762
29082
29313
29522
29627
29676
29603
29592
29474
29257
29003
28730
28516
28246
28100
28289
28270
28451
28548
28854
29027
29236
29442
29847
29969
30037
30119
29998
29783
29498
29208
28889
28860
28751
28668
28511
28613
28583
28874
28999
29070
29606
29886
30086
30291
30199
30355
30227
29906
29615
29248
29172
29011
28907
28810
28779
28634
28889
29044
29159
29295
29474
29864
30130
30215
30148
30189
30044
30042
29852
29503
29252
28859
28934
28855
28791
28798
28794
28861
29176
29366
29514
29695
29984
30215
30240
30187
30062
29857
29511
29228
29127
28906
28740
28601
28750
28767
28831
28957
29047
29284
29492
29739
30214
30402
30492
30550
30528
30320
30193
29823
29563
29301
29183
29086
29049
29225
29420
29584
29750
29943
30181
30511
30957
31111
31145
31218
31051
31110
30919
30702
30487
30335
30298
30306
30220
30476
30709
30972
31239
31466
31750
32322
32567
32812
33088
33185
33343
33254
33055
32794
32599
32638
32444
32303
32356
32440
32501
32919
33125
33324
33641
33985
34197
34567
34623
34542
34426
34295
34088
33799
33687
33410
33218
33180
33148
33239
33278
33433
33581
34023
34252
34407
34697
34871
34847
34872
34767
34455
34255
33988
33660
33613
33441
33157
33197
33175
33362
33448
33645
33900
34076
34239
34607
34602
34516
34568
34356
34282
34106
33796
33454
33196
33087
33128
33093
33088
33053
33116
33257
33492
33693
34108
34266
34303
34311
34212
34183
33974
33656
33460
33071
32761
32634
32561
32517
32532
32828
32919
33039
33118
33415
33645
33983
34078
34087
33953
33891
33741
33461
33311
32984
32759
32647
32468
32524
32438
32413
32679
32965
33295
33631
33684
33737
34012
34111
34180
33967
33729
33452
33098
32967
32711
32406
32343
32291
32410
32418
32603
32830
33076
33557
33892
34066
34087
34178
34112
34020
33764
33516
33159
33059
32807
32593
32403
32415
32433
32658
32845
32916
32999
33306
33576
33763
34031
34045
33975
33822
33594
33255
32903
32710
32522
32360
32218
32134
32174
32372
32537
32688
32866
33060
33381
33631
33724
33795
33936
33815
33523
33205
32788
32533
32357
32166
32196
32099
32041
32068
32210
32310
32638
32715
32806
33172
33455
33852
33804
33655
33434
33205
32775
32631
32343
32134
32109
31973
32103
32220
32416
32519
32741
33054
33324
33575
33872
33930
33836
33574
33412
33178
32903
32551
32450
32095
31978
31975
31865
32187
32327
32484
32675
32846
33112
33358
33749
33764
33716
33590
33287
33044
32797
32550
32300
32217
32298
32260
32278
32338
32423
32560
32826
33044
33327
33583
33714
33820
33977
33815
33548
33316
33109
32820
32628
32535
32524
32459
32426
32509
32679
32808
32965
33148
33428
33769
34013
34001
33876
33859
33647
33424
33116
33046
32812
32679
32518
32416
32495
32519
32661
32983
33086
33249
33510
33732
33829
34031
34173
34109
33858
33525
33135
32799
32540
32479
32261
32180
32214
32332
32565
32837
32999
33404
33655
33722
33922
33967
33956
33894
33853
33447
32997
32764
32489
32325
32247
32337
32493
32592
32679
32801
33028
33347
33599
33782
34116
34207
34277
34131
33935
33606
33407
33149
32822
32644
32711
32728
32739
32823
33085
33186
33381
33766
33968
34143
34202
34375
34379
34330
34042
33992
33578
33252
33073
32903
32986
32922
32903
32969
33157
33383
33482
33843
34003
34143
34284
34360
34530
34345
34118
33784
33361
33215
32957
32727
32690
32620
32590
32838
32994
33096
33231
33498
33718
34036
34337
34530
34628
34470
34332
33931
33694
33372
33116
32956
33084
32981
33057
33159
33514
33665
33804
34049
34359
34658
34681
34630
34723
34668
34425
34369
33994
33634
33304
33162
33063
32915
33091
33088
33261
33405
33626
33815
34188
34332
34372
34454
34439
34240
34040
33914
33500
33066
32958
32812
32764
32924
32804
33038
33199
33466
33650
33799
34076
34263
34375
34623
34485
34235
34085
33790
33463
33130
32569
32262
31942
31806
31919
31932
31960
32231
32591
33287
33754
34386
34938
35349
35815
36294
36279
35999
35478
34887
34670
35079
35926
37500
39686
42236
44728
46863
48972
50749
52454
53918
55076
55756
55879
55776
55615
55559
55484
55340
55079
54727
54279
54063
53996
53911
53607
52679
51516
50272
49124
47913
46567
44970
43223
41405
40192
38716
37324
35612
33841
32485
31336
30414
29575
29191
28990
28844
28828
28785
28842
28850
28971
28852
28651
28324
28112
27752
27380
27014
26919
26775
26614
26581
26618
26647
26676
26861
26964
27242
27399
27483
27748
28000
28056
27902
27610
27432
27121
26903
26719
26501
26373
26444
26574
26789
27001
27100
27303
27541
27817
27988
28208
28282
28383
28285
28124
27919
27733
27532
27342
27068
27121
27099
27097
27217
27356
27504
27740
27944
28420
28673
28826
28991
28898
28862
28715
28467
28098
27820
27719
27627
27516
27619
27685
27873
27974
28207
28433
28735
28996
29157
29394
29537
29479
29483
29209
28892
28535
28255
28091
27909
27871
27807
27815
28038
28105
28460
28663
28980
29273
29485
29792
29869
29959
29832
29694
29382
29102
28743
28602
28452
28360
28262
28311
28327
28519
28591
28955
29248
29556
29789
30052
30159
30092
29916
29591
29464
29060
28931
28811
28647
28573
28596
28593
28619
28844
28977
28985
29388
29766
30028
30047
30124
30279
30045
29796
29532
29313
29015
28772
28597
28503
28386
28431
28519
28671
28902
29297
29523
29691
30012
30169
30119
30067
29983
29840
29687
29363
29061
28935
28842
28716
28619
28679
28772
28996
29099
29396
29690
29980
30175
30328
30475
30558
30395
30144
30017
29751
29423
29151
28957
29052
29039
29063
29229
29364
29487
29846
30186
30596
30823
30946
31028
31010
31012
30903
30751
30414
30322
30164
30082
30143
30094
30433
30601
30785
31122
31385
31687
32109
32404
32611
32807
32895
32739
32415
32372
32140
31992
31972
31962
31841
32016
32075
32183
32532
32844
33146
33492
33689
33906
34148
34273
34365
34528
34301
33975
33580
33379
33268
33194
33110
32956
32843
33060
33171
33541
33731
33858
34130
34361
34639
34804
34799
34837
34492
34071
33848
33671
33532
33428
33311
33190
33151
33415
33636
33812
33988
34119
34340
34686
